Price,Close,Volume
Ticker,ATR,ATR
Date,,
2021-03-23,132.0743408203125,330100
2021-03-24,133.07823181152344,300800
2021-03-25,133.6693115234375,265600
2021-03-26,135.8741912841797,286800
2021-03-29,135.82723999023438,272200
2021-03-30,134.2416229248047,247900
2021-03-31,132.918701171875,408600
2021-04-01,134.98284912109375,228200
2021-04-05,135.75218200683594,196100
2021-04-06,136.95309448242188,206100
2021-04-07,134.72012329101562,188000
2021-04-08,134.80453491210938,158700
2021-04-09,136.23068237304688,151400
2021-04-12,137.1782684326172,100800
2021-04-13,137.29087829589844,160800
2021-04-14,136.802978515625,185100
2021-04-15,138.1071319580078,184800
2021-04-16,138.93276977539062,322600
2021-04-19,140.46206665039062,203900
2021-04-20,141.1282196044922,190300
2021-04-21,142.55430603027344,191200
2021-04-22,140.79986572265625,278400
2021-04-23,142.0946044921875,188100
2021-04-26,141.59730529785156,193600
2021-04-27,142.6319580078125,214900
2021-04-28,142.1428680419922,192000
2021-04-29,141.9547576904297,226400
2021-04-30,141.851318359375,365700
2021-05-03,143.4032440185547,212900
2021-05-04,145.81121826171875,206800
2021-05-05,145.0211181640625,186400
2021-05-06,147.2220916748047,240600
2021-05-07,148.20030212402344,187100
2021-05-10,146.24388122558594,226300
2021-05-11,144.84239196777344,299700
2021-05-12,142.603759765625,164100
2021-05-13,145.43492126464844,308900
2021-05-14,144.4191436767578,174000
2021-05-17,144.0146484375,136800
2021-05-18,141.9547576904297,172500
2021-05-19,140.65672302246094,161400
2021-05-20,140.8448944091797,123200
2021-05-21,140.74139404296875,134900
2021-05-24,140.3933563232422,143000
2021-05-25,138.9542236328125,199200
2021-05-26,139.0764923095703,113600
2021-05-27,138.05128479003906,172600
2021-05-28,138.5592041015625,146900
2021-06-01,138.15476989746094,173000
2021-06-02,137.00723266601562,282800
2021-06-03,136.76263427734375,224500
2021-06-04,136.9131622314453,151900
2021-06-07,134.05377197265625,184800
2021-06-08,134.29833984375,182900
2021-06-09,133.72454833984375,174100
2021-06-10,136.37704467773438,216100
2021-06-11,137.1671600341797,152900
2021-06-14,134.96615600585938,223600
2021-06-15,135.7562255859375,214200
2021-06-16,134.14781188964844,168400
2021-06-17,133.1037139892578,157900
2021-06-18,131.7775115966797,280400
2021-06-21,133.16961669921875,229800
2021-06-22,133.2166290283203,207400
2021-06-23,131.84335327148438,227600
2021-06-24,131.85275268554688,142300
2021-06-25,132.54876708984375,635000
2021-06-28,132.35128784179688,218600
2021-06-29,131.9468231201172,151900
2021-06-30,132.4735565185547,186500
2021-07-01,132.73692321777344,225500
2021-07-02,132.06907653808594,121900
2021-07-06,131.73045349121094,273400
2021-07-07,132.6428680419922,219900
2021-07-08,130.99681091308594,154200
2021-07-09,132.79335021972656,229800
2021-07-12,132.07847595214844,174300
2021-07-13,130.2725830078125,223600
2021-07-14,130.2161407470703,179900
2021-07-15,130.32899475097656,155500
2021-07-16,130.78048706054688,177700
2021-07-19,128.9839324951172,293000
2021-07-20,128.8804931640625,294000
2021-07-21,127.97752380371094,158000
2021-07-22,126.67009735107422,203600
2021-07-23,128.1467742919922,175200
2021-07-26,128.59828186035156,191000
2021-07-27,128.6359100341797,150500
2021-07-28,129.4730224609375,165100
2021-07-29,130.7899169921875,316000
2021-07-30,121.26162719726562,842400
2021-08-02,122.19282531738281,453600
2021-08-03,121.34381866455078,418300
2021-08-04,119.58917236328125,294500
2021-08-05,120.27782440185547,158000
2021-08-06,121.15514373779297,184600
2021-08-09,122.711669921875,297200
2021-08-10,121.88152313232422,200400
2021-08-11,124.17388916015625,305900
2021-08-12,125.1644058227539,247800
2021-08-13,125.51343536376953,174300
2021-08-16,125.35308837890625,106300
2021-08-17,125.4756851196289,213100
2021-08-18,124.57007598876953,110800
2021-08-19,124.90969848632812,94000
2021-08-20,125.95683288574219,118600
2021-08-23,125.42852783203125,111200
2021-08-24,125.42852783203125,85700
2021-08-25,126.5322494506836,116000
2021-08-26,125.14554595947266,133600
2021-08-27,126.90962982177734,180600
2021-08-30,127.56996154785156,122300
2021-08-31,127.16434478759766,154100
2021-09-01,127.36243438720703,135800
2021-09-02,127.48505401611328,165500
2021-09-03,127.49447631835938,112700
2021-09-07,123.655029296875,131600
2021-09-08,123.46633911132812,325200
2021-09-09,121.34381866455078,227700
2021-09-10,118.71186828613281,341000
2021-09-13,117.6930160522461,286000
2021-09-14,117.52322387695312,184100
2021-09-15,117.57038879394531,206600
2021-09-16,115.37238311767578,176800
2021-09-17,114.36299896240234,568400
2021-09-20,114.9572982788086,289200
2021-09-21,113.25926971435547,240600
2021-09-22,113.466796875,235000
2021-09-23,114.15544891357422,162100
2021-09-24,113.54227447509766,186300
2021-09-27,113.51397705078125,206600
2021-09-28,113.23094940185547,230800
2021-09-29,113.56112670898438,237600
2021-09-30,112.5894775390625,314900
2021-10-01,114.69316101074219,259800
2021-10-04,115.36293029785156,241900
2021-10-05,114.76863098144531,249200
2021-10-06,116.1270523071289,240900
2021-10-07,117.22136688232422,252700
2021-10-08,117.45719146728516,217900
2021-10-11,117.51378631591797,182800
2021-10-12,117.43830871582031,99800
2021-10-13,120.17405700683594,266400
2021-10-14,120.75891876220703,215400
2021-10-15,120.95704650878906,193200
2021-10-18,120.57969665527344,221100
2021-10-19,120.32498931884766,143300
2021-10-20,120.90044403076172,180000
2021-10-21,121.75889587402344,139700
2021-10-22,120.53251647949219,131600
2021-10-25,120.55140686035156,216400
2021-10-26,120.05937194824219,188500
2021-10-27,118.57389831542969,202200
2021-10-28,119.1983642578125,218700
2021-10-29,114.2782974243164,696400
2021-11-01,118.4414291381836,581800
2021-11-02,120.54193115234375,275500
2021-11-03,121.48809051513672,290000
2021-11-04,121.63004302978516,326300
2021-11-05,124.42120361328125,335700
2021-11-08,123.60751342773438,255000
2021-11-09,123.34259033203125,170700
2021-11-10,122.60459899902344,147000
2021-11-11,122.84111785888672,131800
2021-11-12,124.41175842285156,177500
2021-11-15,125.19708251953125,190800
2021-11-16,127.01374816894531,402900
2021-11-17,127.21239471435547,267100
2021-11-18,122.66136169433594,258800
2021-11-19,123.1438980102539,212800
2021-11-22,121.86658477783203,274500
2021-11-23,122.71810913085938,155800
2021-11-24,121.2799301147461,220400
2021-11-26,119.79444885253906,167000
2021-11-29,119.09429931640625,228100
2021-11-30,113.15234375,593800
2021-12-01,110.50308990478516,786000
2021-12-02,113.20912170410156,578300
2021-12-03,112.40486907958984,368300
2021-12-06,113.74845123291016,615400
2021-12-07,113.80521392822266,377900
2021-12-08,114.31615447998047,210100
2021-12-09,113.09557342529297,193600
2021-12-10,113.29427337646484,168900
2021-12-13,112.22510528564453,217900
2021-12-14,110.65445709228516,292600
2021-12-15,111.99803161621094,309800
2021-12-16,112.3008041381836,242600
2021-12-17,109.65153503417969,800100
2021-12-20,107.55103302001953,291900
2021-12-21,109.1784439086914,301800
2021-12-22,109.1784439086914,379800
2021-12-23,110.06785583496094,223800
2021-12-27,113.43620300292969,352200
2021-12-28,114.90277862548828,438700
2021-12-29,115.52723693847656,953000
2021-12-30,115.31908416748047,237200
2021-12-31,115.88679504394531,226400
2022-01-03,114.31615447998047,234900
2022-01-04,114.84597778320312,337300
2022-01-05,116.43555450439453,367600
2022-01-06,115.95301055908203,231900
2022-01-07,117.02217864990234,335100
2022-01-10,115.47992706298828,398400
2022-01-11,115.92461395263672,135500
2022-01-12,114.77030944824219,206600
2022-01-13,115.12039184570312,193200
2022-01-14,114.6567611694336,179000
2022-01-18,113.8903579711914,232500
2022-01-19,114.88385009765625,252600
2022-01-20,112.43326568603516,297700
2022-01-21,110.11515808105469,351800
2022-01-24,110.73016357421875,329300
2022-01-25,109.78398132324219,470000
2022-01-26,108.98921203613281,1542500
2022-01-27,107.53208923339844,263900
2022-01-28,108.85673522949219,323100
2022-01-31,110.9856185913086,486300
2022-02-01,111.15592193603516,214000
2022-02-02,110.70030975341797,363600
2022-02-03,109.3428726196289,167700
2022-02-04,109.4093246459961,242700
2022-02-07,108.91571807861328,263300
2022-02-08,110.15923309326172,204200
2022-02-09,110.63386535644531,295900
2022-02-10,108.79234313964844,267100
2022-02-11,107.93800354003906,230600
2022-02-14,108.30821990966797,266600
2022-02-15,108.30821990966797,263000
2022-02-16,108.87776947021484,271400
2022-02-17,109.74156951904297,362400
2022-02-18,112.42790985107422,462300
2022-02-22,113.05440521240234,437200
2022-02-23,111.71598815917969,321100
2022-02-24,110.93761444091797,349300
2022-02-25,114.8294906616211,260100
2022-02-28,115.69329071044922,316300
2022-03-01,113.05440521240234,325700
2022-03-02,112.37094116210938,435100
2022-03-03,113.27272033691406,196100
2022-03-04,114.08910369873047,206700
2022-03-07,110.6053695678711,337300
2022-03-08,104.5966796875,382800
2022-03-09,107.52033233642578,224800
2022-03-10,106.5616226196289,223200
2022-03-11,106.5995864868164,237100
2022-03-14,108.70689392089844,173800
2022-03-15,110.88066101074219,199500
2022-03-16,111.05149841308594,266800
2022-03-17,112.3994369506836,163300
2022-03-18,111.76344299316406,286800
2022-03-21,112.63674926757812,309100
2022-03-22,111.69699096679688,294100
2022-03-23,108.84928894042969,256800
2022-03-24,109.9693832397461,210100
2022-03-25,111.28881072998047,148000
2022-03-28,110.57689666748047,167300
2022-03-29,113.26325988769531,184700
2022-03-30,112.78861999511719,156600
2022-03-31,111.5356216430664,211200
2022-04-01,112.97846984863281,400800
2022-04-04,112.3994369506836,286300
2022-04-05,111.75395965576172,225300
2022-04-06,112.33300018310547,194300
2022-04-07,113.9087142944336,331900
2022-04-08,115.2471694946289,305300
2022-04-11,112.9215087890625,208000
2022-04-12,111.07050323486328,187400
2022-04-13,111.89632415771484,120200
2022-04-14,111.44071197509766,163300
2022-04-18,108.22278594970703,137100
2022-04-19,111.27932739257812,221600
2022-04-20,113.4341049194336,141200
2022-04-21,112.90254974365234,178200
2022-04-22,110.70030975341797,179900
2022-04-25,109.54222869873047,379600
2022-04-26,105.31368255615234,295300
2022-04-27,105.80889892578125,231500
2022-04-28,106.76129150390625,289200
2022-04-29,109.36128234863281,640200
2022-05-02,107.98985290527344,457000
2022-05-03,108.40890502929688,225400
2022-05-04,111.18984985351562,346900
2022-05-05,107.42794799804688,179000
2022-05-06,105.93272399902344,331800
2022-05-09,101.91371154785156,276700
2022-05-10,99.56131744384766,411800
2022-05-11,99.10419464111328,297800
2022-05-12,101.38037109375,389300
2022-05-13,102.38988494873047,226900
2022-05-16,103.17084503173828,202500
2022-05-17,103.77083587646484,311200
2022-05-18,99.11370849609375,325900
2022-05-19,98.56134033203125,357000
2022-05-20,94.97087860107422,796300
2022-05-23,99.2565689086914,545200
2022-05-24,99.9518051147461,567400
2022-05-25,99.47562408447266,493400
2022-05-26,101.45655822753906,188200
2022-05-27,103.70417022705078,178000
2022-05-31,101.98988342285156,306100
2022-06-01,102.14227294921875,313900
2022-06-02,104.59937286376953,145400
2022-06-03,103.61845397949219,139800
2022-06-06,104.04704284667969,207400
2022-06-07,104.93273162841797,132900
2022-06-08,102.58035278320312,157700
2022-06-09,100.78990173339844,193800
2022-06-10,100.18990325927734,266800
2022-06-13,97.15181732177734,252100
2022-06-14,94.7803955078125,227900
2022-06-15,95.58993530273438,283300
2022-06-16,90.25662994384766,620400
2022-06-17,92.85659790039062,458500
2022-06-21,92.56137084960938,236100
2022-06-22,93.7708969116211,228200
2022-06-23,94.218505859375,152100
2022-06-24,97.73277282714844,327300
2022-06-27,98.63752746582031,185200
2022-06-28,97.80895233154297,280200
2022-06-29,98.46609497070312,220900
2022-06-30,98.29468536376953,205900
2022-07-01,99.51371002197266,262300
2022-07-05,98.01847839355469,230200
2022-07-06,97.75181579589844,286400
2022-07-07,98.19943237304688,221200
2022-07-08,95.24707794189453,208100
2022-07-11,94.80897521972656,186900
2022-07-12,95.72328186035156,284300
2022-07-13,95.8756103515625,202500
2022-07-14,94.57088470458984,199800
2022-07-15,95.24707794189453,195300
2022-07-18,93.42803955078125,179900
2022-07-19,96.21849822998047,635400
2022-07-20,96.97087860107422,458900
2022-07-21,98.55181121826172,138900
2022-07-22,98.66610717773438,214600
2022-07-25,98.97085571289062,267400
2022-07-26,99.2480697631836,262200
2022-07-27,101.35098266601562,229200
2022-07-28,103.0619888305664,249800
2022-07-29,103.00464630126953,424400
2022-08-01,103.42521667480469,277000
2022-08-02,101.88628387451172,209700
2022-08-03,102.88993835449219,260700
2022-08-04,101.7428970336914,292600
2022-08-05,100.98776245117188,174600
2022-08-08,102.5362548828125,219300
2022-08-09,102.5362548828125,249200
2022-08-10,104.92593383789062,152900
2022-08-11,104.79210662841797,171100
2022-08-12,106.17813110351562,201300
2022-08-15,106.97151184082031,146500
2022-08-16,107.12442779541016,187700
2022-08-17,106.13033294677734,173100
2022-08-18,106.13033294677734,197300
2022-08-19,105.29873657226562,253400
2022-08-22,103.1575698852539,178300
2022-08-23,102.17301940917969,178000
2022-08-24,102.70831298828125,183000
2022-08-25,104.16123962402344,132900
2022-08-26,99.80245971679688,152000
2022-08-29,99.41056823730469,146800
2022-08-30,99.45836639404297,148900
2022-08-31,98.2730712890625,180300
2022-09-01,98.0914535522461,212200
2022-09-02,96.95397186279297,206000
2022-09-06,95.90251159667969,159300
2022-09-07,98.68408203125,164200
2022-09-08,100.26128387451172,137900
2022-09-09,101.71421813964844,197100
2022-09-12,102.3833236694336,154500
2022-09-13,99.4296875,271700
2022-09-14,99.00910186767578,250700
2022-09-15,100.55760955810547,423000
2022-09-16,98.11058044433594,579400
2022-09-19,99.91716766357422,194400
2022-09-20,96.71501159667969,157500
2022-09-21,95.27165222167969,173500
2022-09-22,93.79004669189453,199200
2022-09-23,93.75180053710938,274900
2022-09-26,93.11136627197266,364000
2022-09-27,91.8209457397461,238600
2022-09-28,93.90474700927734,237000
2022-09-29,92.49961853027344,206400
2022-09-30,90.8364028930664,471500
2022-10-03,93.14006042480469,274200
2022-10-04,94.85106658935547,262900
2022-10-05,93.8473892211914,201300
2022-10-06,93.42681121826172,202100
2022-10-07,89.83274841308594,119000
2022-10-10,90.20552062988281,177300
2022-10-11,90.55919647216797,369800
2022-10-12,89.2496566772461,147400
2022-10-13,90.38714599609375,237000
2022-10-14,90.88419342041016,319300
2022-10-17,93.02534484863281,344900
2022-10-18,94.89884185791016,281300
2022-10-19,93.8760757446289,359500
2022-10-20,91.83050537109375,185600
2022-10-21,93.21651458740234,176400
2022-10-24,93.57018280029297,158500
2022-10-25,95.20150756835938,292500
2022-10-26,95.08635711669922,271900
2022-10-27,95.08635711669922,216700
2022-10-28,97.0439224243164,445300
2022-10-31,95.1439437866211,372900
2022-11-01,93.29191589355469,301300
2022-11-02,90.93130493164062,268400
2022-11-03,90.8833236694336,278300
2022-11-04,94.77928161621094,209100
2022-11-07,96.4297866821289,180700
2022-11-08,96.29544830322266,153100
2022-11-09,95.11514282226562,165300
2022-11-10,98.19544982910156,266000
2022-11-11,100.03787231445312,292600
2022-11-14,100.18180084228516,238400
2022-11-15,100.46009826660156,272500
2022-11-16,100.68080139160156,139300
2022-11-17,100.3833236694336,162700
2022-11-18,101.75554656982422,213200
2022-11-21,100.89191436767578,193300
2022-11-22,101.71717834472656,284000
2022-11-23,101.89949035644531,202100
2022-11-25,101.63080596923828,114700
2022-11-28,99.31816864013672,208500
2022-11-29,99.13584899902344,181400
2022-11-30,101.85150146484375,297900
2022-12-01,102.76310729980469,156600
2022-12-02,103.68434143066406,167400
2022-12-05,102.38887786865234,153800
2022-12-06,102.6767578125,247800
2022-12-07,102.00504302978516,152800
2022-12-08,103.56917572021484,190800
2022-12-09,103.69393157958984,316700
2022-12-12,103.71312713623047,209100
2022-12-13,103.83785247802734,328400
2022-12-14,103.8666763305664,302500
2022-12-15,103.3005142211914,230000
2022-12-16,103.09899139404297,540600
2022-12-19,101.96666717529297,269800
2022-12-20,102.79191589355469,193300
2022-12-21,106.16969299316406,388500
2022-12-22,104.1737289428711,213800
2022-12-23,105.56512451171875,161500
2022-12-27,106.39039611816406,101700
2022-12-28,104.75908660888672,162700
2022-12-29,106.31363677978516,128700
2022-12-30,105.5363540649414,172300
2023-01-03,105.80504608154297,239200
2023-01-04,106.73585510253906,217200
2023-01-05,107.58989715576172,310000
2023-01-06,109.45149230957031,181500
2023-01-09,108.75100708007812,161800
2023-01-10,108.84696197509766,163000
2023-01-11,108.8757553100586,141300
2023-01-12,108.91413116455078,179100
2023-01-13,109.36514282226562,177700
2023-01-17,109.45149230957031,204500
2023-01-18,107.44593811035156,118900
2023-01-19,107.46514892578125,177400
2023-01-20,108.7126235961914,180800
2023-01-23,108.77980041503906,165500
2023-01-24,108.28079223632812,172600
2023-01-25,107.54190063476562,181200
2023-01-26,108.23282623291016,139000
2023-01-27,108.17524719238281,204300
2023-01-30,108.67424011230469,200200
2023-01-31,110.96765899658203,630900
2023-02-01,112.72952270507812,190900
2023-02-02,112.93168640136719,271600
2023-02-03,111.12171173095703,284100
2023-02-06,109.21543884277344,180400
2023-02-07,108.01200866699219,189100
2023-02-08,106.44268798828125,138800
2023-02-09,105.1814956665039,180200
2023-02-10,105.14297485351562,217900
2023-02-13,105.71099853515625,184900
2023-02-14,105.67247772216797,122500
2023-02-15,106.2790298461914,155200
2023-02-16,106.56786346435547,372200
2023-02-17,112.34441375732422,590700
2023-02-21,110.79438781738281,463900
2023-02-22,110.4477767944336,257700
2023-02-23,110.29371643066406,196400
2023-02-24,110.49591064453125,215100
2023-02-27,112.34441375732422,215300
2023-02-28,112.37330627441406,261500
2023-03-01,113.08574676513672,194700
2023-03-02,114.1640396118164,205000
2023-03-03,115.77185821533203,225400
2023-03-06,112.47919464111328,265900
2023-03-07,112.32516479492188,247100
2023-03-08,111.03504943847656,281700
2023-03-09,110.30337524414062,189700
2023-03-10,108.36821746826172,201400
2023-03-13,107.80017852783203,245400
2023-03-14,110.79438781738281,261500
2023-03-15,107.23216247558594,256200
2023-03-16,108.48374938964844,209200
2023-03-17,106.63526153564453,393800
2023-03-20,108.58001708984375,146400
2023-03-21,108.81108093261719,141200
2023-03-22,108.06975555419922,176700
2023-03-23,107.55950164794922,156900
2023-03-24,108.76294708251953,148800
2023-03-27,109.73533630371094,170100
2023-03-28,110.73661041259766,189800
2023-03-29,111.55496978759766,138700
2023-03-30,111.63197326660156,148000
2023-03-31,113.7885513305664,206300
2023-04-03,114.23143005371094,151100
2023-04-04,113.28791809082031,183100
2023-04-05,114.6454086303711,249700
2023-04-06,114.62615966796875,159300
2023-04-10,114.6646728515625,174600
2023-04-11,114.61651611328125,121800
2023-04-12,113.98109436035156,134300
2023-04-13,115.3193359375,110700
2023-04-14,114.76094055175781,233600
2023-04-17,115.34822082519531,122400
2023-04-18,114.17366790771484,261700
2023-04-19,114.2891845703125,252900
2023-04-20,114.59725952148438,296800
2023-04-21,116.09916687011719,361500
2023-04-24,115.916259765625,229600
2023-04-25,113.67301177978516,167500
2023-04-26,111.43941497802734,247200
2023-04-27,112.2288818359375,361900
2023-04-28,114.09664154052734,586700
2023-05-01,117.11007690429688,283100
2023-05-02,115.99327087402344,359200
2023-05-03,115.80010986328125,294300
2023-05-04,114.73772430419922,192500
2023-05-05,117.53855895996094,171100
2023-05-08,117.34539794921875,200400
2023-05-09,116.45685577392578,185600
2023-05-10,115.52970123291016,227200
2023-05-11,115.20130920410156,203900
2023-05-12,116.65966796875,168400
2023-05-15,116.45685577392578,148300
2023-05-16,114.27413940429688,180800
2023-05-17,114.90190887451172,168600
2023-05-18,114.92122650146484,94000
2023-05-19,115.01780700683594,156900
2023-05-22,114.09062957763672,229600
2023-05-23,113.1731185913086,155400
2023-05-24,111.18356323242188,297800
2023-05-25,109.65758514404297,196800
2023-05-26,110.25640106201172,210200
2023-05-30,109.48374938964844,136100
2023-05-31,108.64349365234375,360800
2023-06-01,109.07810974121094,170700
2023-06-02,110.25640106201172,353000
2023-06-05,109.1939926147461,237400
2023-06-06,110.41089630126953,266900
2023-06-07,111.4636459350586,264100
2023-06-08,111.26082611083984,270500
2023-06-09,110.88414764404297,295000
2023-06-12,111.44432067871094,353000
2023-06-13,111.27049255371094,340600
2023-06-14,111.2221908569336,225200
2023-06-15,112.0817642211914,362600
2023-06-16,113.14414978027344,975300
2023-06-20,111.75337982177734,297000
2023-06-21,109.73485565185547,317800
2023-06-22,110.15016174316406,266200
2023-06-23,108.97187805175781,366000
2023-06-26,109.72520446777344,142300
2023-06-27,110.7972412109375,218300
2023-06-28,109.63826751708984,204800
2023-06-29,110.85517883300781,225900
2023-06-30,111.89825439453125,279800
2023-07-03,112.55501556396484,85700
2023-07-05,109.07810974121094,384200
2023-07-06,108.62417602539062,277700
2023-07-07,109.8990478515625,333400
2023-07-10,110.55580139160156,248000
2023-07-11,111.56023406982422,226700
2023-07-12,112.87371826171875,199400
2023-07-13,113.00892639160156,190200
2023-07-14,114.30309295654297,271600
2023-07-17,115.18199157714844,234200
2023-07-18,115.0081558227539,189100
2023-07-19,115.03711700439453,247200
2023-07-20,115.2496109008789,175800
2023-07-21,115.74215698242188,184300
2023-07-24,115.63593292236328,163400
2023-07-25,116.43753051757812,250700
2023-07-26,116.24372100830078,306900
2023-07-27,115.45875549316406,407800
2023-07-28,119.95537567138672,513000
2023-07-31,117.70706939697266,746500
2023-08-01,118.65679168701172,365300
2023-08-02,118.46296691894531,329200
2023-08-03,117.0771484375,195900
2023-08-04,116.91241455078125,116500
2023-08-07,117.5423355102539,140300
2023-08-08,117.37757110595703,270100
2023-08-09,118.06564331054688,287500
2023-08-10,118.4532699584961,216000
2023-08-11,118.821533203125,226500
2023-08-14,119.18978881835938,145700
2023-08-15,118.31759643554688,249000
2023-08-16,117.78459930419922,291100
2023-08-17,117.88150787353516,186600
2023-08-18,119.48052215576172,443100
2023-08-21,119.95537567138672,358800
2023-08-22,119.15101623535156,429600
2023-08-23,119.57743072509766,305000
2023-08-24,121.24429321289062,278400
2023-08-25,123.59920501708984,493000
2023-08-28,125.41141510009766,331900
2023-08-29,127.74696350097656,472400
2023-08-30,128.783935546875,298900
2023-08-31,128.46408081054688,305800
2023-09-01,128.4544219970703,252000
2023-09-05,123.6282730102539,325300
2023-09-06,122.5041275024414,291100
2023-09-07,121.48655700683594,328600
2023-09-08,121.4381103515625,238800
2023-09-11,123.0855941772461,333500
2023-09-12,122.62040710449219,258000
2023-09-13,121.49626159667969,279300
2023-09-14,122.84330749511719,217900
2023-09-15,122.03895568847656,589200
2023-09-18,121.7579116821289,175100
2023-09-19,121.4381103515625,218600
2023-09-20,120.77911376953125,206200
2023-09-21,118.44359588623047,335700
2023-09-22,118.88936614990234,341200
2023-09-25,120.20735931396484,258800
2023-09-26,119.78093719482422,547000
2023-09-27,119.70342254638672,362400
2023-09-28,121.59317016601562,219300
2023-09-29,121.17645263671875,330900
2023-10-02,121.18614196777344,244100
2023-10-03,119.0735092163086,236300
2023-10-04,120.3914794921875,208200
2023-10-05,119.92631530761719,466700
2023-10-06,122.5041275024414,491700
2023-10-09,123.01774597167969,275700
2023-10-10,122.6301040649414,322000
2023-10-11,123.58950805664062,212900
2023-10-12,121.54470825195312,189300
2023-10-13,122.07772827148438,324900
2023-10-16,122.79485321044922,275200
2023-10-17,123.54106903076172,314400
2023-10-18,122.86268615722656,287300
2023-10-19,121.84513854980469,443900
2023-10-20,118.44359588623047,446500
2023-10-23,117.7458267211914,379000
2023-10-24,119.52898406982422,312100
2023-10-25,118.98446655273438,431300
2023-10-26,120.01513671875,576000
2023-10-27,117.81767272949219,364000
2023-10-30,118.79000091552734,283100
2023-10-31,118.8872299194336,422900
2023-11-01,119.52899169921875,360500
2023-11-02,120.16099548339844,384300
2023-11-03,121.88201904296875,278000
2023-11-06,121.72645568847656,173500
2023-11-07,121.10417175292969,205000
2023-11-08,121.65838623046875,175800
2023-11-09,120.9485855102539,118600
2023-11-10,122.24179077148438,195600
2023-11-13,121.08472442626953,183100
2023-11-14,124.31285858154297,267400
2023-11-15,124.17672729492188,388600
2023-11-16,124.02115631103516,217000
2023-11-17,124.3906478881836,162700
2023-11-20,123.79752349853516,213900
2023-11-21,124.37120819091797,160600
2023-11-22,125.01294708251953,174800
2023-11-24,124.97406005859375,65900
2023-11-27,123.48638153076172,367500
2023-11-28,122.13483428955078,218000
2023-11-29,121.90147399902344,331800
2023-11-30,123.37940979003906,301000
2023-12-01,124.55594635009766,218300
2023-12-04,124.86709594726562,192000
2023-12-05,122.50431823730469,178000
2023-12-06,122.8738021850586,179500
2023-12-07,122.99047088623047,254000
2023-12-08,123.79752349853516,265800
2023-12-11,124.04060363769531,338000
2023-12-12,123.95309448242188,210300
2023-12-13,125.0323715209961,425000
2023-12-14,123.87531280517578,412900
2023-12-15,122.4946060180664,713000
2023-12-18,123.53500366210938,240500
2023-12-19,122.73768615722656,659100
2023-12-20,122.09593963623047,346400
2023-12-21,122.42652893066406,421900
2023-12-22,122.77657318115234,312200
2023-12-26,122.34874725341797,274700
2023-12-27,121.81397247314453,283100
2023-12-28,121.73617553710938,343600
2023-12-29,120.19989013671875,313500
2024-01-02,119.48036193847656,313100
2024-01-03,121.8917465209961,531700
2024-01-04,120.78329467773438,353300
2024-01-05,120.76383209228516,423000
2024-01-08,120.90969848632812,352400
2024-01-09,121.18193054199219,250300
2024-01-10,121.72645568847656,279600
2024-01-11,123.33080291748047,323100
2024-01-12,122.9321517944336,231700
2024-01-16,123.3016357421875,257500
2024-01-17,123.1849594116211,336900
2024-01-18,125.56717681884766,444200
2024-01-19,127.18126678466797,418000
2024-01-22,127.56046295166016,266200
2024-01-23,128.18275451660156,217800
2024-01-24,127.16181182861328,294400
2024-01-25,127.6187973022461,332300
2024-01-26,128.0563507080078,219900
2024-01-29,128.59112548828125,187800
2024-01-30,128.59112548828125,228400
2024-01-31,126.67942810058594,537500
2024-02-01,127.28414916992188,298800
2024-02-02,126.89401245117188,344800
2024-02-05,127.43046569824219,319500
2024-02-06,127.89862060546875,369700
2024-02-07,128.55210876464844,393000
2024-02-08,128.86422729492188,620700
2024-02-09,135.53567504882812,650900
2024-02-12,134.21896362304688,491300
2024-02-13,132.58033752441406,275900
2024-02-14,133.78977966308594,335000
2024-02-15,131.7122802734375,471400
2024-02-16,134.1116485595703,453900
2024-02-20,136.24769592285156,373000
2024-02-21,136.550048828125,276300
2024-02-22,137.9838409423828,295700
2024-02-23,137.8765411376953,190300
2024-02-26,138.4227294921875,199200
2024-02-27,136.85240173339844,244600
2024-02-28,136.949951171875,189600
2024-02-29,136.9987335205078,250600
2024-03-01,136.8328857421875,151400
2024-03-04,138.46176147460938,260300
2024-03-05,139.00794982910156,190200
2024-03-06,139.54441833496094,184000
2024-03-07,141.08544921875,250100
2024-03-08,139.56390380859375,185200
2024-03-11,139.2225341796875,226700
2024-03-12,138.90066528320312,242200
2024-03-13,137.68145751953125,336800
2024-03-14,137.45712280273438,235200
2024-03-15,137.52540588378906,599500
2024-03-18,135.82826232910156,299700
2024-03-19,136.07211303710938,253000
2024-03-20,136.5207977294922,220000
2024-03-21,137.66195678710938,255800
2024-03-22,138.10084533691406,276000
2024-03-25,139.43710327148438,316300
2024-03-26,139.67117309570312,314200
2024-03-27,141.09518432617188,218200
2024-03-28,140.3441925048828,247800
2024-04-01,138.78359985351562,204400
2024-04-02,137.16452026367188,202600
2024-04-03,137.4083709716797,258700
2024-04-04,138.2569122314453,403600
2024-04-05,138.23739624023438,288300
2024-04-08,137.0474853515625,312500
2024-04-09,136.85240173339844,242600
2024-04-10,135.96481323242188,200700
2024-04-11,135.70150756835938,265300
2024-04-12,133.8190460205078,299200
2024-04-15,134.79441833496094,319600
2024-04-16,135.17478942871094,281700
2024-04-17,134.98948669433594,565400
2024-04-18,135.68197631835938,246600
2024-04-19,135.90631103515625,276600
2024-04-22,136.86216735839844,298800
2024-04-23,136.69635009765625,417200
2024-04-24,136.96046447753906,559200
2024-04-25,137.12677001953125,694400
2024-04-26,140.20816040039062,489500
2024-04-29,143.1917266845703,676700
2024-04-30,141.23529052734375,585100
2024-05-01,142.21351623535156,359600
2024-05-02,142.74176025390625,356500
2024-05-03,143.61233520507812,303300
2024-05-06,145.7937774658203,260200
2024-05-07,146.45901489257812,392900
2024-05-08,147.50567626953125,223500
2024-05-09,145.83291625976562,299100
2024-05-10,145.2557830810547,186300
2024-05-13,144.64927673339844,167500
2024-05-14,144.67861938476562,137600
2024-05-15,144.07211303710938,211100
2024-05-16,144.3264617919922,235500
2024-05-17,144.45361328125,169500
2024-05-20,144.9427490234375,163400
2024-05-21,145.3535919189453,280400
2024-05-22,145.5492401123047,283300
2024-05-23,144.5025177001953,171700
2024-05-24,144.86447143554688,162300
2024-05-28,143.51455688476562,318400
2024-05-29,141.68528747558594,229700
2024-05-30,142.9569549560547,328100
2024-05-31,144.47320556640625,358900
2024-06-03,144.93296813964844,266200
2024-06-04,144.9623260498047,287900
2024-06-05,144.6981964111328,229200
2024-06-06,142.78086853027344,197600
2024-06-07,142.3798065185547,179100
2024-06-10,142.41896057128906,125800
2024-06-11,142.33090209960938,147700
2024-06-12,142.6537322998047,221300
2024-06-13,142.6537322998047,232400
2024-06-14,141.5972442626953,141500
2024-06-17,143.142822265625,303800
2024-06-18,143.4949951171875,219900
2024-06-20,142.6341552734375,199900
2024-06-21,143.65147399902344,444100
2024-06-24,143.52432250976562,182900
2024-06-25,141.704833984375,194500
2024-06-26,140.5798797607422,192400
2024-06-27,140.73638916015625,377300
2024-06-28,137.74305725097656,435100
2024-07-01,135.52247619628906,306400
2024-07-02,137.34197998046875,259400
2024-07-03,138.1441192626953,143300
2024-07-05,137.83108520507812,207000
2024-07-08,138.42779541015625,249300
2024-07-09,136.98980712890625,238400
2024-07-10,138.2126007080078,142000
2024-07-11,138.9951629638672,244500
2024-07-12,141.44070434570312,263900
2024-07-15,140.30596923828125,319900
2024-07-16,141.41136169433594,178800
2024-07-17,141.704833984375,242300
2024-07-18,143.09390258789062,434200
2024-07-19,142.76132202148438,251200
2024-07-22,143.98410034179688,235700
2024-07-23,142.859130859375,234500
2024-07-24,141.00051879882812,250600
2024-07-25,138.84170532226562,558100
2024-07-26,143.91494750976562,562800
2024-07-29,145.03358459472656,390900
2024-07-30,143.02195739746094,411000
2024-07-31,144.2289276123047,280600
2024-08-01,144.2779998779297,335300
2024-08-02,142.9630889892578,213500
2024-08-05,138.04684448242188,448500
2024-08-06,142.21730041503906,476000
2024-08-07,140.91221618652344,353600
2024-08-08,142.83551025390625,268600
2024-08-09,141.25564575195312,263200
2024-08-12,140.60801696777344,221100
2024-08-13,141.66778564453125,212000
2024-08-14,141.20657348632812,115700
2024-08-15,144.25836181640625,277500
2024-08-16,143.9738006591797,250600
2024-08-19,144.2191162109375,191200
2024-08-20,145.33778381347656,387200
2024-08-21,146.5349578857422,267300
2024-08-22,146.2013397216797,200400
2024-08-23,147.62416076660156,221400
2024-08-26,147.3494415283203,235500
2024-08-27,148.3699493408203,208300
2024-08-28,148.7035675048828,249000
2024-08-29,149.42971801757812,187100
2024-08-30,150.32272338867188,178500
2024-09-03,147.23165893554688,362400
2024-09-04,147.90872192382812,175800
2024-09-05,147.89892578125,200600
2024-09-06,149.5278778076172,319100
2024-09-09,149.06666564941406,241500
2024-09-10,148.67413330078125,158100
2024-09-11,148.01670837402344,178000
2024-09-12,149.11573791503906,200400
2024-09-13,149.42971801757812,138600
2024-09-16,150.12646484375,182900
2024-09-17,150.1656951904297,259900
2024-09-18,150.2049560546875,214200
2024-09-19,153.96327209472656,412400
2024-09-20,152.9917755126953,663300
2024-09-23,153.0408477783203,315800
2024-09-24,153.6983184814453,246200
2024-09-25,154.1987762451172,284100
2024-09-26,155.4155731201172,371600
2024-09-27,156.89730834960938,354300
2024-09-30,157.19168090820312,289800
2024-10-01,156.97581481933594,192200
2024-10-02,155.7786407470703,186900
2024-10-03,155.96510314941406,367000
2024-10-04,157.5743865966797,350500
2024-10-07,155.71974182128906,223300
2024-10-08,155.70013427734375,205900
2024-10-09,156.71084594726562,152600
2024-10-10,156.23983764648438,168500
2024-10-11,158.52621459960938,194400
2024-10-14,164.0606689453125,469700
2024-10-15,165.52276611328125,397300
2024-10-16,162.93218994140625,330000
2024-10-17,164.74754333496094,238200
2024-10-18,165.47372436523438,171500
2024-10-21,163.2167510986328,217900
2024-10-22,162.7064971923828,228500
2024-10-23,164.5120391845703,318100
2024-10-24,163.8725128173828,547300
2024-10-25,166.19456481933594,518900
2024-10-28,166.3815155029297,350000
2024-10-29,165.98793029785156,338100
2024-10-30,166.31265258789062,290300
2024-10-31,165.2106475830078,329900
2024-11-01,166.68653869628906,316300
2024-11-04,165.55499267578125,191800
2024-11-05,167.5720672607422,206200
2024-11-06,170.37623596191406,264100
2024-11-07,171.9013214111328,412300
2024-11-08,172.93443298339844,309200
2024-11-11,173.31817626953125,189100
2024-11-12,172.8754119873047,179800
2024-11-13,172.67861938476562,168400
2024-11-14,171.30113220214844,198200
2024-11-15,163.81349182128906,620500
2024-11-18,164.01026916503906,384400
2024-11-19,164.2168731689453,287600
2024-11-20,166.01747131347656,221800
2024-11-21,167.14898681640625,205100
2024-11-22,168.7527618408203,241600
2024-11-25,169.7268524169922,270100
2024-11-26,169.2742462158203,140300
2024-11-27,168.96923828125,167200
2024-11-29,170.17945861816406,117300
2024-12-02,169.982666015625,170900
2024-12-03,169.62844848632812,160100
2024-12-04,169.81539916992188,173400
2024-12-05,168.349365234375,245000
2024-12-06,168.3985595703125,209200
2024-12-09,168.0443572998047,301700
2024-12-10,168.1623992919922,287000
2024-12-11,169.5399169921875,418600
2024-12-12,168.88067626953125,178300
2024-12-13,167.4638214111328,153200
2024-12-16,164.93516540527344,236100
2024-12-17,160.46812438964844,511900
2024-12-18,155.66659545898438,468600
2024-12-19,156.31597900390625,404700
2024-12-20,155.63705444335938,730200
2024-12-23,155.97158813476562,194900
2024-12-24,156.7882537841797,100500
2024-12-26,156.29629516601562,164500
2024-12-27,155.60755920410156,145000
2024-12-30,154.2103729248047,221700
2024-12-31,154.57443237304688,317100
2025-01-02,151.6816864013672,239400
2025-01-03,153.00015258789062,250700
2025-01-06,150.46160888671875,369000
2025-01-07,150.9634246826172,361200
2025-01-08,151.67184448242188,228600
2025-01-10,150.9831085205078,350800
2025-01-13,151.41604614257812,349300
2025-01-14,152.12445068359375,196900
2025-01-15,153.05917358398438,206100
2025-01-16,153.89553833007812,346300
2025-01-17,153.58067321777344,231900
2025-01-21,157.2605438232422,270900
2025-01-22,156.51275634765625,280000
2025-01-23,157.05389404296875,149800
2025-01-24,155.755126953125,329600
2025-01-27,155.91256713867188,317000
2025-01-28,155.87319946289062,204300
2025-01-29,154.5842742919922,265800
2025-01-30,155.587890625,274200
2025-01-31,154.62362670898438,834100
2025-02-03,153.47244262695312,364600
2025-02-04,155.16477966308594,302400
2025-02-05,156.22061157226562,262600
2025-02-06,154.37538146972656,446600
2025-02-07,141.28134155273438,1221500
2025-02-10,141.38003540039062,621900
2025-02-11,140.4031524658203,377300
2025-02-12,139.8209686279297,423500
2025-02-13,140.87681579589844,665900
2025-02-14,142.8699951171875,512800
2025-02-18,144.9520263671875,489600
2025-02-19,145.0901641845703,331000
2025-02-20,144.7349395751953,283100
2025-02-21,144.39944458007812,451900
2025-02-24,143.67913818359375,353300
2025-02-25,145.7512969970703,336700
2025-02-26,144.69546508789062,735600
2025-02-27,143.69886779785156,262800
2025-02-28,144.80401611328125,348700
2025-03-03,144.64613342285156,394100
2025-03-04,144.0047607421875,490100
2025-03-05,146.4716033935547,445100
2025-03-06,149.1456756591797,471700
2025-03-07,150.75405883789062,480200
2025-03-10,148.5733642578125,391100
2025-03-11,145.92889404296875,304000
2025-03-12,144.0935516357422,299700
2025-03-13,142.84039306640625,238400
2025-03-14,144.71522521972656,223600
2025-03-17,145.8795623779297,225200
2025-03-18,144.36000061035156,219900
2025-03-19,145.0309600830078,279600
2025-03-20,143.27456665039062,332800
2025-03-21,142.89962768554688,601900
2025-03-24,146.02757263183594,463800
2025-03-25,145.25791931152344,325200
2025-03-26,146.5900115966797,630400
2025-03-27,147.36953735351562,312700
2025-03-28,144.98162841796875,239800
2025-03-31,146.41241455078125,372500
2025-04-01,147.12286376953125,240000
2025-04-02,148.5338897705078,247600
2025-04-03,146.6985626220703,352900
2025-04-04,138.3211212158203,531600
2025-04-07,132.86447143554688,629900
2025-04-08,131.88760375976562,473800
2025-04-09,141.84381103515625,491800
2025-04-10,138.89346313476562,309000
2025-04-11,142.19903564453125,203000
2025-04-14,143.85675048828125,249300
2025-04-15,142.0312957763672,250700
2025-04-16,143.0772247314453,307700
2025-04-17,141.9227294921875,390600
2025-04-21,140.68931579589844,291600
2025-04-22,144.08370971679688,217800
2025-04-23,146.0867919921875,537000
2025-04-24,149.45156860351562,424500
2025-04-25,147.0833740234375,220500
2025-04-28,147.7148895263672,235200
2025-04-29,148.3069305419922,359900
2025-04-30,147.9615936279297,556200
2025-05-01,146.75413513183594,445300
2025-05-02,150.43585205078125,431600
2025-05-05,149.92120361328125,267600
2025-05-06,149.36695861816406,312000
2025-05-07,149.83212280273438,318400
2025-05-08,151.7818603515625,302500
2025-05-09,151.74227905273438,231600
2025-05-12,153.91964721679688,352500
2025-05-13,152.05897521972656,339400
2025-05-14,150.91090393066406,350100
2025-05-15,153.35549926757812,278100
2025-05-16,155.394287109375,278600
2025-05-19,156.4532928466797,185400
2025-05-20,156.89866638183594,388100
2025-05-21,154.84005737304688,319800
2025-05-22,155.03799438476562,278900
2025-05-23,154.33531188964844,260500
2025-05-27,156.532470703125,352800
2025-05-28,155.7802734375,364400
2025-05-29,156.70071411132812,232100
2025-05-30,156.7699737548828,335100
2025-06-02,155.2953338623047,349600
2025-06-03,154.6520233154297,397800
2025-06-04,148.8622283935547,831900
2025-06-05,150.9208221435547,482400
2025-06-06,151.73236083984375,264700
2025-06-09,150.0399627685547,388400
2025-06-10,150.9604034423828,323500
2025-06-11,150.356689453125,380800
2025-06-12,152.76168823242188,337200
2025-06-13,149.6044921875,361200
2025-06-16,150.12904357910156,346200
2025-06-17,147.91209411621094,379700
2025-06-18,148.1595001220703,383200
2025-06-20,148.7533416748047,570500
2025-06-23,152.20742797851562,356500
2025-06-24,152.28660583496094,246600
2025-06-25,152.34597778320312,264700
2025-06-26,152.89031982421875,658200
2025-06-27,154.21653747558594,643100
2025-06-30,154.8202667236328,315500
2025-07-01,157.37371826171875,338300
2025-07-02,158.67025756835938,293500
2025-07-03,159.38282775878906,235100
2025-07-07,159.3036651611328,313900
2025-07-08,158.40301513671875,342700
2025-07-09,158.0863037109375,252800
2025-07-10,156.70071411132812,361600
2025-07-11,156.27513122558594,292000
2025-07-14,155.93862915039062,276600
2025-07-15,152.57363891601562,254200
2025-07-16,153.38516235351562,261900
2025-07-17,154.4243621826172,397700
2025-07-18,154.77078247070312,243100
2025-07-21,153.850341796875,205900
2025-07-22,157.53207397460938,449900
2025-07-23,159.9964599609375,450500
2025-07-24,160.6018524169922,431900
2025-07-25,159.77810668945312,296300
2025-07-28,157.50534057617188,308500
2025-07-29,157.62445068359375,388200
2025-07-30,155.60971069335938,580700
2025-07-31,155.9570770263672,679700
2025-08-01,140.28594970703125,1012300
2025-08-04,138.08265686035156,839000
2025-08-05,139.16444396972656,540800
2025-08-06,137.49710083007812,515300
2025-08-07,139.4324188232422,564000
2025-08-08,139.69046020507812,428700
2025-08-11,138.81707763671875,349500
2025-08-12,138.4300079345703,286100
2025-08-13,140.36534118652344,729900
2025-08-14,137.29859924316406,875800
2025-08-15,137.6757354736328,770500
2025-08-18,136.85198974609375,529500
2025-08-19,138.53919982910156,333100
2025-08-20,140.11721801757812,519200
2025-08-21,139.581298828125,270400
2025-08-22,140.36534118652344,356500
2025-08-25,138.50941467285156,245800
2025-08-26,138.65829467773438,442900
2025-08-27,138.39031982421875,729100
2025-08-28,137.84446716308594,320800
2025-08-29,138.2216033935547,370700
2025-09-02,135.3831329345703,310600
2025-09-03,134.2021026611328,382300
2025-09-04,137.41770935058594,401800
2025-09-05,137.5764923095703,440800
2025-09-08,137.2589111328125,616100
2025-09-09,136.018310546875,637100
2025-09-10,135.22434997558594,685100
2025-09-11,136.0679473876953,477500
2025-09-12,134.21200561523438,261300
2025-09-15,133.8348846435547,298000
2025-09-16,134.19216918945312,474800
2025-09-17,133.63638305664062,377400
2025-09-18,133.48751831054688,254800
2025-09-19,133.42796325683594,877200
2025-09-22,131.7209014892578,402100
2025-09-23,131.02618408203125,319700
2025-09-24,130.5100860595703,353300
2025-09-25,129.83522033691406,388700
2025-09-26,131.29412841796875,274400
2025-09-29,131.2742919921875,540600
2025-09-30,132.65383911132812,310400
2025-10-01,133.13021850585938,310100
2025-10-02,132.1774444580078,398500
2025-10-03,132.21714782714844,402000
2025-10-06,130.8872528076172,447100
2025-10-07,129.60694885253906,438800
2025-10-08,130.6192626953125,361300
2025-10-09,129.62680053710938,554200
2025-10-10,129.94436645507812,426000
2025-10-13,129.23973083496094,311400
2025-10-14,128.82290649414062,337400
2025-10-15,127.13569641113281,438300
2025-10-16,128.18771362304688,352700
2025-10-17,128.36634826660156,339700
2025-10-20,129.02137756347656,240500
2025-10-21,129.58709716796875,311600
2025-10-22,129.0809326171875,357500
2025-10-23,130.266357421875,378600
2025-10-24,128.38363647460938,489300
2025-10-27,128.2840118408203,521700
2025-10-28,127.60664367675781,413500
2025-10-29,123.83123016357422,651100
2025-10-30,123.88104248046875,702600
2025-10-31,115.56320190429688,2758200
2025-11-03,112.68433380126953,1661000
2025-11-04,113.74024963378906,1029100
2025-11-05,115.12489318847656,896900
2025-11-06,115.7026596069336,880300
2025-11-07,115.77239227294922,697200
2025-11-10,115.93177032470703,514000
2025-11-11,117.81449127197266,484800
2025-11-12,117.70491790771484,547500
2025-11-13,119.737060546875,679400
2025-11-14,118.15318298339844,521200
2025-11-17,118.88037109375,820200
2025-11-18,118.8504867553711,817400
2025-11-19,117.5455322265625,598900
2025-11-20,118.12329864501953,507400
2025-11-21,121.05197143554688,509100
2025-11-24,121.00216674804688,740000
2025-11-25,122.96458435058594,543600
2025-11-26,123.3331527709961,538000
2025-11-28,124.26953887939453,315700
2025-12-01,122.8051986694336,536800
2025-12-02,121.13166809082031,325400
2025-12-03,121.58989715576172,543100
2025-12-04,121.550048828125,708000
2025-12-05,121.44047546386719,537000
2025-12-08,119.60755920410156,496600
2025-12-09,115.2743148803711,640300
2025-12-10,116.7187271118164,734700
2025-12-11,117.55549621582031,389700
2025-12-12,121.00216674804688,656400
2025-12-15,121.85885620117188,588600
2025-12-16,122.35693359375,644800
2025-12-17,123.15384674072266,567300
2025-12-18,122.14774322509766,457100
2025-12-19,120.92247772216797,1300400
2025-12-22,122.26727294921875,527800
2025-12-23,121.71939849853516,311700
2025-12-24,122.27723693847656,198000
2025-12-26,122.77531433105469,306000
2025-12-29,122.73546600341797,400200
2025-12-30,122.26727294921875,289800
2025-12-31,121.49028015136719,314300
2026-01-02,122.06804656982422,295100
2026-01-05,122.52627563476562,435700
2026-01-06,120.09567260742188,777200
2026-01-07,119.97613525390625,478500
2026-01-08,121.96843719482422,330000
2026-01-09,123.37300109863281,429100
2026-01-12,124.6480712890625,477300
2026-01-13,123.02435302734375,351900
2026-01-14,126.3614501953125,611700
2026-01-15,124.6281509399414,381000
2026-01-16,124.22969055175781,363400
2026-01-20,123.3431167602539,275100
2026-01-21,124.52853393554688,421000
2026-01-22,123.99061584472656,369700
2026-01-23,125.51472473144531,429500
2026-01-26,125.86337280273438,315400
2026-01-27,124.25957489013672,303100
2026-01-28,123.22357940673828,347800
2026-01-29,123.37300109863281,386000
2026-01-30,124.46876525878906,512700
2026-02-02,124.34922790527344,489100
2026-02-03,124.14999389648438,658700
2026-02-04,129.22999572753906,589400
2026-02-05,123.9800033569336,2144200
2026-02-06,134.30999755859375,1045700
2026-02-09,138.47000122070312,1043400
2026-02-10,140.1699981689453,622100
2026-02-11,140.00999450683594,584300
2026-02-12,140.50999450683594,572700
2026-02-13,142.5800018310547,471900
2026-02-17,141.64999389648438,614700
2026-02-18,141.72000122070312,582000
2026-02-19,143.16000366210938,525500
2026-02-20,145.0500030517578,664500
2026-02-23,145.72000122070312,513500
2026-02-24,144.13999938964844,429800
2026-02-25,142.67999267578125,348900
2026-02-26,141.7899932861328,331300
2026-02-27,143.7100067138672,344600
2026-03-02,142.6699981689453,335000
2026-03-03,139.75999450683594,347300
2026-03-04,137.0399932861328,389000
2026-03-05,134.72999572753906,452300
2026-03-06,132.0800018310547,398500
2026-03-09,133.75,545700
2026-03-10,132.1300048828125,503100
2026-03-11,132.02000427246094,563800
2026-03-12,128.86000061035156,620600
2026-03-13,128.64999389648438,660600
2026-03-16,129.0500030517578,370700
2026-03-17,129.5,276700
2026-03-18,124.22000122070312,910500
2026-03-19,123.97000122070312,518500
2026-03-20,121.05999755859375,1481500
2026-03-23,125.91000366210938,78761
