Price,Close,Volume
Ticker,ATR,ATR
Date,,
2021-03-22,132.8436737060547,247700
2021-03-23,132.07435607910156,330100
2021-03-24,133.07823181152344,300800
2021-03-25,133.66929626464844,265600
2021-03-26,135.8741912841797,286800
2021-03-29,135.82725524902344,272200
2021-03-30,134.24168395996094,247900
2021-03-31,132.91871643066406,408600
2021-04-01,134.98280334472656,228200
2021-04-05,135.75216674804688,196100
2021-04-06,136.95309448242188,206100
2021-04-07,134.72010803222656,188000
2021-04-08,134.80453491210938,158700
2021-04-09,136.2306671142578,151400
2021-04-12,137.17828369140625,100800
2021-04-13,137.2908477783203,160800
2021-04-14,136.80303955078125,185100
2021-04-15,138.10711669921875,184800
2021-04-16,138.93276977539062,322600
2021-04-19,140.46209716796875,203900
2021-04-20,141.12823486328125,190300
2021-04-21,142.55435180664062,191200
2021-04-22,140.79981994628906,278400
2021-04-23,142.09461975097656,188100
2021-04-26,141.5973358154297,193600
2021-04-27,142.63198852539062,214900
2021-04-28,142.14285278320312,192000
2021-04-29,141.9547576904297,226400
2021-04-30,141.85130310058594,365700
2021-05-03,143.40330505371094,212900
2021-05-04,145.8112335205078,206800
2021-05-05,145.0211181640625,186400
2021-05-06,147.22207641601562,240600
2021-05-07,148.20033264160156,187100
2021-05-10,146.24386596679688,226300
2021-05-11,144.84239196777344,299700
2021-05-12,142.603759765625,164100
2021-05-13,145.43496704101562,308900
2021-05-14,144.41908264160156,174000
2021-05-17,144.01467895507812,136800
2021-05-18,141.9547576904297,172500
2021-05-19,140.65672302246094,161400
2021-05-20,140.84487915039062,123200
2021-05-21,140.7413787841797,134900
2021-05-24,140.3933563232422,143000
2021-05-25,138.9542694091797,199200
2021-05-26,139.07652282714844,113600
2021-05-27,138.05126953125,172600
2021-05-28,138.5592041015625,146900
2021-06-01,138.15476989746094,173000
2021-06-02,137.00723266601562,282800
2021-06-03,136.76263427734375,224500
2021-06-04,136.9131317138672,151900
2021-06-07,134.05374145507812,184800
2021-06-08,134.2982940673828,182900
2021-06-09,133.7245330810547,174100
2021-06-10,136.3770294189453,216100
2021-06-11,137.1671600341797,152900
2021-06-14,134.96609497070312,223600
2021-06-15,135.75621032714844,214200
2021-06-16,134.14781188964844,168400
2021-06-17,133.103759765625,157900
2021-06-18,131.77748107910156,280400
2021-06-21,133.1696014404297,229800
2021-06-22,133.21661376953125,207400
2021-06-23,131.84335327148438,227600
2021-06-24,131.85276794433594,142300
2021-06-25,132.54879760742188,635000
2021-06-28,132.3512725830078,218600
2021-06-29,131.94683837890625,151900
2021-06-30,132.47354125976562,186500
2021-07-01,132.7368927001953,225500
2021-07-02,132.06912231445312,121900
2021-07-06,131.73049926757812,273400
2021-07-07,132.64285278320312,219900
2021-07-08,130.9967803955078,154200
2021-07-09,132.7933349609375,229800
2021-07-12,132.07850646972656,174300
2021-07-13,130.2725372314453,223600
2021-07-14,130.21609497070312,179900
2021-07-15,130.32896423339844,155500
2021-07-16,130.78045654296875,177700
2021-07-19,128.98394775390625,293000
2021-07-20,128.88050842285156,294000
2021-07-21,127.97750091552734,158000
2021-07-22,126.67005920410156,203600
2021-07-23,128.14682006835938,175200
2021-07-26,128.59828186035156,191000
2021-07-27,128.63592529296875,150500
2021-07-28,129.47300720214844,165100
2021-07-29,130.78988647460938,316000
2021-07-30,121.26163482666016,842400
2021-08-02,122.1928482055664,453600
2021-08-03,121.34383392333984,418300
2021-08-04,119.58917236328125,294500
2021-08-05,120.27782440185547,158000
2021-08-06,121.1551284790039,184600
2021-08-09,122.71167755126953,297200
2021-08-10,121.88153076171875,200400
2021-08-11,124.17389678955078,305900
2021-08-12,125.1644058227539,247800
2021-08-13,125.51347351074219,174300
2021-08-16,125.35306549072266,106300
2021-08-17,125.47566986083984,213100
2021-08-18,124.57010650634766,110800
2021-08-19,124.90972137451172,94000
2021-08-20,125.95682525634766,118600
2021-08-23,125.42855072021484,111200
2021-08-24,125.42855072021484,85700
2021-08-25,126.53227996826172,116000
2021-08-26,125.14554595947266,133600
2021-08-27,126.90962982177734,180600
2021-08-30,127.5699691772461,122300
2021-08-31,127.16431427001953,154100
2021-09-01,127.36241149902344,135800
2021-09-02,127.48506927490234,165500
2021-09-03,127.49451446533203,112700
2021-09-07,123.65503692626953,131600
2021-09-08,123.46636962890625,325200
2021-09-09,121.34383392333984,227700
2021-09-10,118.71184539794922,341000
2021-09-13,117.69303894042969,286000
2021-09-14,117.52322387695312,184100
2021-09-15,117.57039642333984,206600
2021-09-16,115.37236022949219,176800
2021-09-17,114.36298370361328,568400
2021-09-20,114.95730590820312,289200
2021-09-21,113.2592544555664,240600
2021-09-22,113.46678161621094,235000
2021-09-23,114.15544891357422,162100
2021-09-24,113.5422592163086,186300
2021-09-27,113.51396179199219,206600
2021-09-28,113.23096466064453,230800
2021-09-29,113.56114196777344,237600
2021-09-30,112.5894546508789,314900
2021-10-01,114.69315338134766,259800
2021-10-04,115.36294555664062,241900
2021-10-05,114.76862335205078,249200
2021-10-06,116.12705993652344,240900
2021-10-07,117.22135162353516,252700
2021-10-08,117.45719146728516,217900
2021-10-11,117.5137939453125,182800
2021-10-12,117.43832397460938,99800
2021-10-13,120.17405700683594,266400
2021-10-14,120.75892639160156,215400
2021-10-15,120.95704650878906,193200
2021-10-18,120.57968139648438,221100
2021-10-19,120.32500457763672,143300
2021-10-20,120.90044403076172,180000
2021-10-21,121.7588882446289,139700
2021-10-22,120.53251647949219,131600
2021-10-25,120.55138397216797,216400
2021-10-26,120.05937957763672,188500
2021-10-27,118.57389831542969,202200
2021-10-28,119.19837951660156,218700
2021-10-29,114.27828979492188,696400
2021-11-01,118.44144439697266,581800
2021-11-02,120.54192352294922,275500
2021-11-03,121.48809814453125,290000
2021-11-04,121.63002014160156,326300
2021-11-05,124.42121124267578,335700
2021-11-08,123.60752868652344,255000
2021-11-09,123.34260559082031,170700
2021-11-10,122.60456085205078,147000
2021-11-11,122.84111785888672,131800
2021-11-12,124.41175842285156,177500
2021-11-15,125.19710540771484,190800
2021-11-16,127.0136947631836,402900
2021-11-17,127.21244049072266,267100
2021-11-18,122.66136169433594,258800
2021-11-19,123.14388275146484,212800
2021-11-22,121.86656951904297,274500
2021-11-23,122.71810913085938,155800
2021-11-24,121.2799301147461,220400
2021-11-26,119.79444885253906,167000
2021-11-29,119.09428405761719,228100
2021-11-30,113.15235900878906,593800
2021-12-01,110.5030746459961,786000
2021-12-02,113.2091293334961,578300
2021-12-03,112.40489959716797,368300
2021-12-06,113.74842834472656,615400
2021-12-07,113.8051986694336,377900
2021-12-08,114.31614685058594,210100
2021-12-09,113.0955810546875,193600
2021-12-10,113.29426574707031,168900
2021-12-13,112.22511291503906,217900
2021-12-14,110.65445709228516,292600
2021-12-15,111.99803161621094,309800
2021-12-16,112.30081176757812,242600
2021-12-17,109.65152740478516,800100
2021-12-20,107.551025390625,291900
2021-12-21,109.1784439086914,301800
2021-12-22,109.1784439086914,379800
2021-12-23,110.06784057617188,223800
2021-12-27,113.43620300292969,352200
2021-12-28,114.90275573730469,438700
2021-12-29,115.52722930908203,953000
2021-12-30,115.31906127929688,237200
2021-12-31,115.88677978515625,226400
2022-01-03,114.31614685058594,234900
2022-01-04,114.84600067138672,337300
2022-01-05,116.43556213378906,367600
2022-01-06,115.9530029296875,231900
2022-01-07,117.02220153808594,335100
2022-01-10,115.47993469238281,398400
2022-01-11,115.92463684082031,135500
2022-01-12,114.77030181884766,206600
2022-01-13,115.12036895751953,193200
2022-01-14,114.65675354003906,179000
2022-01-18,113.8903579711914,232500
2022-01-19,114.88385009765625,252600
2022-01-20,112.4332504272461,297700
2022-01-21,110.11515808105469,351800
2022-01-24,110.73016357421875,329300
2022-01-25,109.78397369384766,470000
2022-01-26,108.98921966552734,1542500
2022-01-27,107.53211212158203,263900
2022-01-28,108.85674285888672,323100
2022-01-31,110.98561096191406,486300
2022-02-01,111.15594482421875,214000
2022-02-02,110.7002944946289,363600
2022-02-03,109.34288787841797,167700
2022-02-04,109.4093246459961,242700
2022-02-07,108.91572570800781,263300
2022-02-08,110.15923309326172,204200
2022-02-09,110.63385772705078,295900
2022-02-10,108.79234313964844,267100
2022-02-11,107.93801879882812,230600
2022-02-14,108.30821228027344,266600
2022-02-15,108.30821228027344,263000
2022-02-16,108.87775421142578,271400
2022-02-17,109.7415542602539,362400
2022-02-18,112.42791748046875,462300
2022-02-22,113.05440521240234,437200
2022-02-23,111.71597290039062,321100
2022-02-24,110.93761444091797,349300
2022-02-25,114.82948303222656,260100
2022-02-28,115.69327545166016,316300
2022-03-01,113.05440521240234,325700
2022-03-02,112.37095642089844,435100
2022-03-03,113.27274322509766,196100
2022-03-04,114.08909606933594,206700
2022-03-07,110.60537719726562,337300
2022-03-08,104.5966796875,382800
2022-03-09,107.5203628540039,224800
2022-03-10,106.56161499023438,223200
2022-03-11,106.59959411621094,237100
2022-03-14,108.7068862915039,173800
2022-03-15,110.88066101074219,199500
2022-03-16,111.051513671875,266800
2022-03-17,112.39945983886719,163300
2022-03-18,111.76344299316406,286800
2022-03-21,112.63675689697266,309100
2022-03-22,111.6969985961914,294100
2022-03-23,108.84927368164062,256800
2022-03-24,109.9693832397461,210100
2022-03-25,111.28883361816406,148000
2022-03-28,110.5768814086914,167300
2022-03-29,113.26325225830078,184700
2022-03-30,112.78861236572266,156600
2022-03-31,111.53562927246094,211200
2022-04-01,112.97845458984375,400800
2022-04-04,112.39945983886719,286300
2022-04-05,111.75394439697266,225300
2022-04-06,112.3329849243164,194300
2022-04-07,113.90872192382812,331900
2022-04-08,115.24716186523438,305300
2022-04-11,112.9215316772461,208000
2022-04-12,111.07049560546875,187400
2022-04-13,111.89631652832031,120200
2022-04-14,111.44070434570312,163300
2022-04-18,108.22277069091797,137100
2022-04-19,111.27934265136719,221600
2022-04-20,113.4341049194336,141200
2022-04-21,112.90254211425781,178200
2022-04-22,110.7002944946289,179900
2022-04-25,109.54222106933594,379600
2022-04-26,105.31368255615234,295300
2022-04-27,105.80891418457031,231500
2022-04-28,106.76129150390625,289200
2022-04-29,109.36128234863281,640200
2022-05-02,107.98986053466797,457000
2022-05-03,108.40889739990234,225400
2022-05-04,111.1898193359375,346900
2022-05-05,107.42794799804688,179000
2022-05-06,105.9327163696289,331800
2022-05-09,101.9136962890625,276700
2022-05-10,99.56132507324219,411800
2022-05-11,99.10418701171875,297800
2022-05-12,101.38037109375,389300
2022-05-13,102.38990020751953,226900
2022-05-16,103.17083740234375,202500
2022-05-17,103.77083587646484,311200
2022-05-18,99.11371612548828,325900
2022-05-19,98.56134033203125,357000
2022-05-20,94.97087860107422,796300
2022-05-23,99.25658416748047,545200
2022-05-24,99.9518051147461,567400
2022-05-25,99.47560119628906,493400
2022-05-26,101.45655059814453,188200
2022-05-27,103.70417785644531,178000
2022-05-31,101.98989868164062,306100
2022-06-01,102.14226531982422,313900
2022-06-02,104.5993881225586,145400
2022-06-03,103.61844635009766,139800
2022-06-06,104.0470199584961,207400
2022-06-07,104.9327163696289,132900
2022-06-08,102.58036041259766,157700
2022-06-09,100.7898941040039,193800
2022-06-10,100.18989562988281,266800
2022-06-13,97.15182495117188,252100
2022-06-14,94.78041076660156,227900
2022-06-15,95.58992004394531,283300
2022-06-16,90.25660705566406,620400
2022-06-17,92.85661315917969,458500
2022-06-21,92.56138610839844,236100
2022-06-22,93.77088928222656,228200
2022-06-23,94.21849822998047,152100
2022-06-24,97.73277282714844,327300
2022-06-27,98.63752746582031,185200
2022-06-28,97.8089599609375,280200
2022-06-29,98.46610260009766,220900
2022-06-30,98.2946548461914,205900
2022-07-01,99.51370239257812,262300
2022-07-05,98.01847076416016,230200
2022-07-06,97.75181579589844,286400
2022-07-07,98.19944763183594,221200
2022-07-08,95.24706268310547,208100
2022-07-11,94.80896759033203,186900
2022-07-12,95.72325897216797,284300
2022-07-13,95.87564086914062,202500
2022-07-14,94.57088470458984,199800
2022-07-15,95.24706268310547,195300
2022-07-18,93.42803192138672,179900
2022-07-19,96.218505859375,635400
2022-07-20,96.97087097167969,458900
2022-07-21,98.55182647705078,138900
2022-07-22,98.66610717773438,214600
2022-07-25,98.97085571289062,267400
2022-07-26,99.24805450439453,262200
2022-07-27,101.3509750366211,229200
2022-07-28,103.06198120117188,249800
2022-07-29,103.004638671875,424400
2022-08-01,103.42521667480469,277000
2022-08-02,101.88626861572266,209700
2022-08-03,102.88992309570312,260700
2022-08-04,101.74288940429688,292600
2022-08-05,100.98774719238281,174600
2022-08-08,102.53626251220703,219300
2022-08-09,102.53626251220703,249200
2022-08-10,104.92593383789062,152900
2022-08-11,104.7921142578125,171100
2022-08-12,106.17813873291016,201300
2022-08-15,106.97149658203125,146500
2022-08-16,107.12444305419922,187700
2022-08-17,106.13034057617188,173100
2022-08-18,106.13034057617188,197300
2022-08-19,105.29872131347656,253400
2022-08-22,103.15757751464844,178300
2022-08-23,102.17302703857422,178000
2022-08-24,102.70832061767578,183000
2022-08-25,104.16123962402344,132900
2022-08-26,99.80245971679688,152000
2022-08-29,99.41056060791016,146800
2022-08-30,99.45836639404297,148900
2022-08-31,98.27307891845703,180300
2022-09-01,98.09146118164062,212200
2022-09-02,96.95398712158203,206000
2022-09-06,95.90251159667969,159300
2022-09-07,98.68411254882812,164200
2022-09-08,100.26127624511719,137900
2022-09-09,101.71420288085938,197100
2022-09-12,102.38331604003906,154500
2022-09-13,99.42967987060547,271700
2022-09-14,99.00908660888672,250700
2022-09-15,100.55760192871094,423000
2022-09-16,98.1105728149414,579400
2022-09-19,99.91716766357422,194400
2022-09-20,96.71501922607422,157500
2022-09-21,95.27162170410156,173500
2022-09-22,93.79005432128906,199200
2022-09-23,93.75181579589844,274900
2022-09-26,93.11137390136719,364000
2022-09-27,91.82093048095703,238600
2022-09-28,93.90474700927734,237000
2022-09-29,92.49961853027344,206400
2022-09-30,90.83641052246094,471500
2022-10-03,93.14004516601562,274200
2022-10-04,94.85107421875,262900
2022-10-05,93.84739685058594,201300
2022-10-06,93.42681121826172,202100
2022-10-07,89.8327407836914,119000
2022-10-10,90.2055435180664,177300
2022-10-11,90.5592041015625,369800
2022-10-12,89.2496566772461,147400
2022-10-13,90.38714599609375,237000
2022-10-14,90.88419342041016,319300
2022-10-17,93.02534484863281,344900
2022-10-18,94.89884185791016,281300
2022-10-19,93.87606048583984,359500
2022-10-20,91.83052062988281,185600
2022-10-21,93.21652221679688,176400
2022-10-24,93.5701904296875,158500
2022-10-25,95.20150756835938,292500
2022-10-26,95.08634185791016,271900
2022-10-27,95.08634185791016,216700
2022-10-28,97.0439224243164,445300
2022-10-31,95.1439437866211,372900
2022-11-01,93.29190826416016,301300
2022-11-02,90.93130493164062,268400
2022-11-03,90.88333129882812,278300
2022-11-04,94.779296875,209100
2022-11-07,96.4297866821289,180700
2022-11-08,96.29546356201172,153100
2022-11-09,95.11514282226562,165300
2022-11-10,98.19544219970703,266000
2022-11-11,100.0378646850586,292600
2022-11-14,100.18180084228516,238400
2022-11-15,100.46009063720703,272500
2022-11-16,100.68081665039062,139300
2022-11-17,100.38334655761719,162700
2022-11-18,101.75554656982422,213200
2022-11-21,100.89192199707031,193300
2022-11-22,101.7171630859375,284000
2022-11-23,101.89949798583984,202100
2022-11-25,101.63079071044922,114700
2022-11-28,99.31817626953125,208500
2022-11-29,99.13585662841797,181400
2022-11-30,101.85150146484375,297900
2022-12-01,102.76313018798828,156600
2022-12-02,103.68433380126953,167400
2022-12-05,102.38887023925781,153800
2022-12-06,102.67675018310547,247800
2022-12-07,102.00505065917969,152800
2022-12-08,103.5691909790039,190800
2022-12-09,103.69392395019531,316700
2022-12-12,103.71312713623047,209100
2022-12-13,103.8378677368164,328400
2022-12-14,103.86666107177734,302500
2022-12-15,103.30049133300781,230000
2022-12-16,103.09899139404297,540600
2022-12-19,101.96666717529297,269800
2022-12-20,102.79190826416016,193300
2022-12-21,106.16967010498047,388500
2022-12-22,104.17373657226562,213800
2022-12-23,105.5651626586914,161500
2022-12-27,106.39039611816406,101700
2022-12-28,104.75907897949219,162700
2022-12-29,106.3136215209961,128700
2022-12-30,105.53636932373047,172300
2023-01-03,105.80504608154297,239200
2023-01-04,106.73584747314453,217200
2023-01-05,107.58988952636719,310000
2023-01-06,109.45149230957031,181500
2023-01-09,108.75100708007812,161800
2023-01-10,108.84696960449219,163000
2023-01-11,108.8757553100586,141300
2023-01-12,108.91412353515625,179100
2023-01-13,109.36515045166016,177700
2023-01-17,109.45149230957031,204500
2023-01-18,107.4459457397461,118900
2023-01-19,107.46514129638672,177400
2023-01-20,108.71263122558594,180800
2023-01-23,108.77979278564453,165500
2023-01-24,108.28079223632812,172600
2023-01-25,107.54191589355469,181200
2023-01-26,108.23281860351562,139000
2023-01-27,108.17523956298828,204300
2023-01-30,108.67424011230469,200200
2023-01-31,110.9676513671875,630900
2023-02-01,112.72953033447266,190900
2023-02-02,112.93168640136719,271600
2023-02-03,111.1217041015625,284100
2023-02-06,109.2154541015625,180400
2023-02-07,108.01199340820312,189100
2023-02-08,106.44269561767578,138800
2023-02-09,105.18148040771484,180200
2023-02-10,105.14295196533203,217900
2023-02-13,105.71099853515625,184900
2023-02-14,105.6724853515625,122500
2023-02-15,106.27902221679688,155200
2023-02-16,106.56786346435547,372200
2023-02-17,112.34441375732422,590700
2023-02-21,110.79437255859375,463900
2023-02-22,110.4477767944336,257700
2023-02-23,110.2937240600586,196400
2023-02-24,110.49591827392578,215100
2023-02-27,112.34441375732422,215300
2023-02-28,112.37329864501953,261500
2023-03-01,113.08573150634766,194700
2023-03-02,114.1640396118164,205000
2023-03-03,115.77184295654297,225400
2023-03-06,112.47921752929688,265900
2023-03-07,112.32514190673828,247100
2023-03-08,111.03504943847656,281700
2023-03-09,110.30335998535156,189700
2023-03-10,108.36821746826172,201400
2023-03-13,107.80017852783203,245400
2023-03-14,110.79437255859375,261500
2023-03-15,107.2321548461914,256200
2023-03-16,108.48375701904297,209200
2023-03-17,106.63526153564453,393800
2023-03-20,108.58003234863281,146400
2023-03-21,108.81108856201172,141200
2023-03-22,108.06977081298828,176700
2023-03-23,107.55948638916016,156900
2023-03-24,108.762939453125,148800
2023-03-27,109.73532104492188,170100
2023-03-28,110.7365951538086,189800
2023-03-29,111.55494689941406,138700
2023-03-30,111.6319580078125,148000
2023-03-31,113.78855895996094,206300
2023-04-03,114.23141479492188,151100
2023-04-04,113.28792572021484,183100
2023-04-05,114.64541625976562,249700
2023-04-06,114.62615203857422,159300
2023-04-10,114.66466522216797,174600
2023-04-11,114.61653137207031,121800
2023-04-12,113.98110961914062,134300
2023-04-13,115.3193359375,110700
2023-04-14,114.76094055175781,233600
2023-04-17,115.34822082519531,122400
2023-04-18,114.17364501953125,261700
2023-04-19,114.2891845703125,252900
2023-04-20,114.59727478027344,296800
2023-04-21,116.09918212890625,361500
2023-04-24,115.91626739501953,229600
2023-04-25,113.67301940917969,167500
2023-04-26,111.43942260742188,247200
2023-04-27,112.22889709472656,361900
2023-04-28,114.09664916992188,586700
2023-05-01,117.11009216308594,283100
2023-05-02,115.99327850341797,359200
2023-05-03,115.80011749267578,294300
2023-05-04,114.73772430419922,192500
2023-05-05,117.5385513305664,171100
2023-05-08,117.34539794921875,200400
2023-05-09,116.45686340332031,185600
2023-05-10,115.5296859741211,227200
2023-05-11,115.20130920410156,203900
2023-05-12,116.6596908569336,168400
2023-05-15,116.45686340332031,148300
2023-05-16,114.27413940429688,180800
2023-05-17,114.90191650390625,168600
2023-05-18,114.92123413085938,94000
2023-05-19,115.01780700683594,156900
2023-05-22,114.09062957763672,229600
2023-05-23,113.17311096191406,155400
2023-05-24,111.18356323242188,297800
2023-05-25,109.65760040283203,196800
2023-05-26,110.25638580322266,210200
2023-05-30,109.4837417602539,136100
2023-05-31,108.64348602294922,360800
2023-06-01,109.07809448242188,170700
2023-06-02,110.25638580322266,353000
2023-06-05,109.1939926147461,237400
2023-06-06,110.41091918945312,266900
2023-06-07,111.4636459350586,264100
2023-06-08,111.26082611083984,270500
2023-06-09,110.8841552734375,295000
2023-06-12,111.4443359375,353000
2023-06-13,111.2704849243164,340600
2023-06-14,111.22219848632812,225200
2023-06-15,112.08177947998047,362600
2023-06-16,113.14414978027344,975300
2023-06-20,111.75337982177734,297000
2023-06-21,109.73484802246094,317800
2023-06-22,110.15015411376953,266200
2023-06-23,108.97187042236328,366000
2023-06-26,109.72518920898438,142300
2023-06-27,110.7972412109375,218300
2023-06-28,109.63826751708984,204800
2023-06-29,110.85519409179688,225900
2023-06-30,111.89826965332031,279800
2023-07-03,112.55500030517578,85700
2023-07-05,109.07809448242188,384200
2023-07-06,108.62418365478516,277700
2023-07-07,109.8990478515625,333400
2023-07-10,110.55577850341797,248000
2023-07-11,111.56021881103516,226700
2023-07-12,112.87373352050781,199400
2023-07-13,113.00894165039062,190200
2023-07-14,114.3031005859375,271600
2023-07-17,115.18199157714844,234200
2023-07-18,115.0081558227539,189100
2023-07-19,115.03712463378906,247200
2023-07-20,115.24960327148438,175800
2023-07-21,115.7421646118164,184300
2023-07-24,115.63593292236328,163400
2023-07-25,116.43755340576172,250700
2023-07-26,116.24372100830078,306900
2023-07-27,115.45875549316406,407800
2023-07-28,119.95538330078125,513000
2023-07-31,117.70706176757812,746500
2023-08-01,118.65678405761719,365300
2023-08-02,118.46296691894531,329200
2023-08-03,117.07715606689453,195900
2023-08-04,116.91239166259766,116500
2023-08-07,117.54232025146484,140300
2023-08-08,117.37757873535156,270100
2023-08-09,118.06562042236328,287500
2023-08-10,118.45328521728516,216000
2023-08-11,118.821533203125,226500
2023-08-14,119.18978881835938,145700
2023-08-15,118.31759643554688,249000
2023-08-16,117.78460693359375,291100
2023-08-17,117.88150787353516,186600
2023-08-18,119.48053741455078,443100
2023-08-21,119.95538330078125,358800
2023-08-22,119.1510238647461,429600
2023-08-23,119.57742309570312,305000
2023-08-24,121.24429321289062,278400
2023-08-25,123.59920501708984,493000
2023-08-28,125.41143798828125,331900
2023-08-29,127.74697875976562,472400
2023-08-30,128.7838897705078,298900
2023-08-31,128.46409606933594,305800
2023-09-01,128.45440673828125,252000
2023-09-05,123.6282730102539,325300
2023-09-06,122.50411987304688,291100
2023-09-07,121.486572265625,328600
2023-09-08,121.43810272216797,238800
2023-09-11,123.08557891845703,333500
2023-09-12,122.62041473388672,258000
2023-09-13,121.49626159667969,279300
2023-09-14,122.84329986572266,217900
2023-09-15,122.03894805908203,589200
2023-09-18,121.7579116821289,175100
2023-09-19,121.43810272216797,218600
2023-09-20,120.77911376953125,206200
2023-09-21,118.44357299804688,335700
2023-09-22,118.88936614990234,341200
2023-09-25,120.20735168457031,258800
2023-09-26,119.78093719482422,547000
2023-09-27,119.70343017578125,362400
2023-09-28,121.59315490722656,219300
2023-09-29,121.17644500732422,330900
2023-10-02,121.18614959716797,244100
2023-10-03,119.07350158691406,236300
2023-10-04,120.3914794921875,208200
2023-10-05,119.92631530761719,466700
2023-10-06,122.50411987304688,491700
2023-10-09,123.01774597167969,275700
2023-10-10,122.6301040649414,322000
2023-10-11,123.58950805664062,212900
2023-10-12,121.5447006225586,189300
2023-10-13,122.07771301269531,324900
2023-10-16,122.79484558105469,275200
2023-10-17,123.54106903076172,314400
2023-10-18,122.86267852783203,287300
2023-10-19,121.84513854980469,443900
2023-10-20,118.44357299804688,446500
2023-10-23,117.7458267211914,379000
2023-10-24,119.52896881103516,312100
2023-10-25,118.9844741821289,431300
2023-10-26,120.01515197753906,576000
2023-10-27,117.81766510009766,364000
2023-10-30,118.79000854492188,283100
2023-10-31,118.8872299194336,422900
2023-11-01,119.52896881103516,360500
2023-11-02,120.16099548339844,384300
2023-11-03,121.88202667236328,278000
2023-11-06,121.72645568847656,173500
2023-11-07,121.10417175292969,205000
2023-11-08,121.65838623046875,175800
2023-11-09,120.94857025146484,118600
2023-11-10,122.2417984008789,195600
2023-11-13,121.084716796875,183100
2023-11-14,124.3128662109375,267400
2023-11-15,124.17672729492188,388600
2023-11-16,124.02115631103516,217000
2023-11-17,124.3906478881836,162700
2023-11-20,123.79751586914062,213900
2023-11-21,124.3711929321289,160600
2023-11-22,125.01294708251953,174800
2023-11-24,124.97403717041016,65900
2023-11-27,123.48638153076172,367500
2023-11-28,122.13483428955078,218000
2023-11-29,121.9014663696289,331800
2023-11-30,123.37940979003906,301000
2023-12-01,124.55596160888672,218300
2023-12-04,124.86708068847656,192000
2023-12-05,122.50431060791016,178000
2023-12-06,122.87381744384766,179500
2023-12-07,122.990478515625,254000
2023-12-08,123.79751586914062,265800
2023-12-11,124.04059600830078,338000
2023-12-12,123.9531021118164,210300
2023-12-13,125.03238677978516,425000
2023-12-14,123.87531280517578,412900
2023-12-15,122.49459838867188,713000
2023-12-18,123.53500366210938,240500
2023-12-19,122.73768615722656,659100
2023-12-20,122.09593200683594,346400
2023-12-21,122.4265365600586,421900
2023-12-22,122.77657318115234,312200
2023-12-26,122.34873962402344,274700
2023-12-27,121.81396484375,283100
2023-12-28,121.73616790771484,343600
2023-12-29,120.19989013671875,313500
2024-01-02,119.48037719726562,313100
2024-01-03,121.8917465209961,531700
2024-01-04,120.78329467773438,353300
2024-01-05,120.76383972167969,423000
2024-01-08,120.90969848632812,352400
2024-01-09,121.18194580078125,250300
2024-01-10,121.72645568847656,279600
2024-01-11,123.33079528808594,323100
2024-01-12,122.9321517944336,231700
2024-01-16,123.3016357421875,257500
2024-01-17,123.18495178222656,336900
2024-01-18,125.56716918945312,444200
2024-01-19,127.18123626708984,418000
2024-01-22,127.56047058105469,266200
2024-01-23,128.1827392578125,217800
2024-01-24,127.16178131103516,294400
2024-01-25,127.61881256103516,332300
2024-01-26,128.05633544921875,219900
2024-01-29,128.5911407470703,187800
2024-01-30,128.5911407470703,228400
2024-01-31,126.67943572998047,537500
2024-02-01,127.28416442871094,298800
2024-02-02,126.8940200805664,344800
2024-02-05,127.43045806884766,319500
2024-02-06,127.89862823486328,369700
2024-02-07,128.5521240234375,393000
2024-02-08,128.8642120361328,620700
2024-02-09,135.5356903076172,650900
2024-02-12,134.2189178466797,491300
2024-02-13,132.580322265625,275900
2024-02-14,133.78977966308594,335000
2024-02-15,131.7122802734375,471400
2024-02-16,134.1116485595703,453900
2024-02-20,136.24769592285156,373000
2024-02-21,136.550048828125,276300
2024-02-22,137.98382568359375,295700
2024-02-23,137.8765411376953,190300
2024-02-26,138.42276000976562,199200
2024-02-27,136.85240173339844,244600
2024-02-28,136.949951171875,189600
2024-02-29,136.99871826171875,250600
2024-03-01,136.83290100097656,151400
2024-03-04,138.4617462158203,260300
2024-03-05,139.00794982910156,190200
2024-03-06,139.5443878173828,184000
2024-03-07,141.08544921875,250100
2024-03-08,139.5639190673828,185200
2024-03-11,139.22254943847656,226700
2024-03-12,138.90066528320312,242200
2024-03-13,137.68145751953125,336800
2024-03-14,137.4571075439453,235200
2024-03-15,137.52542114257812,599500
2024-03-18,135.82827758789062,299700
2024-03-19,136.07211303710938,253000
2024-03-20,136.52078247070312,220000
2024-03-21,137.6619415283203,255800
2024-03-22,138.1008758544922,276000
2024-03-25,139.43711853027344,316300
2024-03-26,139.67117309570312,314200
2024-03-27,141.09523010253906,218200
2024-03-28,140.34417724609375,247800
2024-04-01,138.78359985351562,204400
2024-04-02,137.16453552246094,202600
2024-04-03,137.4083709716797,258700
2024-04-04,138.25689697265625,403600
2024-04-05,138.23739624023438,288300
2024-04-08,137.0474853515625,312500
2024-04-09,136.85240173339844,242600
2024-04-10,135.96485900878906,200700
2024-04-11,135.7014923095703,265300
2024-04-12,133.81906127929688,299200
2024-04-15,134.79437255859375,319600
2024-04-16,135.17477416992188,281700
2024-04-17,134.9894561767578,565400
2024-04-18,135.68199157714844,246600
2024-04-19,135.9063262939453,276600
2024-04-22,136.86216735839844,298800
2024-04-23,136.6963348388672,417200
2024-04-24,136.96047973632812,559200
2024-04-25,137.12677001953125,694400
2024-04-26,140.2081756591797,489500
2024-04-29,143.1917266845703,676700
2024-04-30,141.23529052734375,585100
2024-05-01,142.21353149414062,359600
2024-05-02,142.74176025390625,356500
2024-05-03,143.61236572265625,303300
2024-05-06,145.7937774658203,260200
2024-05-07,146.45901489257812,392900
2024-05-08,147.5056610107422,223500
2024-05-09,145.8329315185547,299100
2024-05-10,145.2557830810547,186300
2024-05-13,144.64927673339844,167500
2024-05-14,144.67860412597656,137600
2024-05-15,144.07212829589844,211100
2024-05-16,144.32647705078125,235500
2024-05-17,144.45362854003906,169500
2024-05-20,144.94273376464844,163400
2024-05-21,145.3535919189453,280400
2024-05-22,145.54922485351562,283300
2024-05-23,144.5025634765625,171700
2024-05-24,144.86448669433594,162300
2024-05-28,143.5145263671875,318400
2024-05-29,141.68527221679688,229700
2024-05-30,142.9569549560547,328100
2024-05-31,144.4731903076172,358900
2024-06-03,144.93295288085938,266200
2024-06-04,144.96231079101562,287900
2024-06-05,144.69818115234375,229200
2024-06-06,142.7808837890625,197600
2024-06-07,142.37982177734375,179100
2024-06-10,142.4189453125,125800
2024-06-11,142.3308868408203,147700
2024-06-12,142.65371704101562,221300
2024-06-13,142.65371704101562,232400
2024-06-14,141.59722900390625,141500
2024-06-17,143.142822265625,303800
2024-06-18,143.49497985839844,219900
2024-06-20,142.6341552734375,199900
2024-06-21,143.65150451660156,444100
2024-06-24,143.52430725097656,182900
2024-06-25,141.70481872558594,194500
2024-06-26,140.57989501953125,192400
2024-06-27,140.73638916015625,377300
2024-06-28,137.7430419921875,435100
2024-07-01,135.52249145507812,306400
2024-07-02,137.3419647216797,259400
2024-07-03,138.1441192626953,143300
2024-07-05,137.8311004638672,207000
2024-07-08,138.4278106689453,249300
2024-07-09,136.9898223876953,238400
2024-07-10,138.21258544921875,142000
2024-07-11,138.99517822265625,244500
2024-07-12,141.44073486328125,263900
2024-07-15,140.3059844970703,319900
2024-07-16,141.41136169433594,178800
2024-07-17,141.70481872558594,242300
2024-07-18,143.0939178466797,434200
2024-07-19,142.76132202148438,251200
2024-07-22,143.9840850830078,235700
2024-07-23,142.85914611816406,234500
2024-07-24,141.00051879882812,250600
2024-07-25,138.84170532226562,558100
2024-07-26,143.91493225097656,562800
2024-07-29,145.03359985351562,390900
2024-07-30,143.02195739746094,411000
2024-07-31,144.2289581298828,280600
2024-08-01,144.2780303955078,335300
2024-08-02,142.96307373046875,213500
2024-08-05,138.04684448242188,448500
2024-08-06,142.21730041503906,476000
2024-08-07,140.91220092773438,353600
2024-08-08,142.8355255126953,268600
2024-08-09,141.25564575195312,263200
2024-08-12,140.60800170898438,221100
2024-08-13,141.6678009033203,212000
2024-08-14,141.2065887451172,115700
2024-08-15,144.25836181640625,277500
2024-08-16,143.97381591796875,250600
2024-08-19,144.21913146972656,191200
2024-08-20,145.33778381347656,387200
2024-08-21,146.5349578857422,267300
2024-08-22,146.2013397216797,200400
2024-08-23,147.62417602539062,221400
2024-08-26,147.3494415283203,235500
2024-08-27,148.3699493408203,208300
2024-08-28,148.70358276367188,249000
2024-08-29,149.42974853515625,187100
2024-08-30,150.32272338867188,178500
2024-09-03,147.23165893554688,362400
2024-09-04,147.9087677001953,175800
2024-09-05,147.89894104003906,200600
2024-09-06,149.52786254882812,319100
2024-09-09,149.06668090820312,241500
2024-09-10,148.67413330078125,158100
2024-09-11,148.01669311523438,178000
2024-09-12,149.11572265625,200400
2024-09-13,149.42974853515625,138600
2024-09-16,150.12644958496094,182900
2024-09-17,150.16567993164062,259900
2024-09-18,150.20494079589844,214200
2024-09-19,153.9632568359375,412400
2024-09-20,152.99179077148438,663300
2024-09-23,153.04086303710938,315800
2024-09-24,153.69833374023438,246200
2024-09-25,154.1987762451172,284100
2024-09-26,155.4155731201172,371600
2024-09-27,156.8972930908203,354300
2024-09-30,157.19168090820312,289800
2024-10-01,156.97581481933594,192200
2024-10-02,155.77865600585938,186900
2024-10-03,155.96510314941406,367000
2024-10-04,157.57440185546875,350500
2024-10-07,155.7197723388672,223300
2024-10-08,155.70013427734375,205900
2024-10-09,156.7108612060547,152600
2024-10-10,156.23983764648438,168500
2024-10-11,158.52626037597656,194400
2024-10-14,164.06068420410156,469700
2024-10-15,165.52276611328125,397300
2024-10-16,162.93215942382812,330000
2024-10-17,164.74757385253906,238200
2024-10-18,165.47373962402344,171500
2024-10-21,163.21676635742188,217900
2024-10-22,162.7064971923828,228500
2024-10-23,164.51205444335938,318100
2024-10-24,163.8725128173828,547300
2024-10-25,166.19456481933594,518900
2024-10-28,166.3815155029297,350000
2024-10-29,165.98793029785156,338100
2024-10-30,166.31265258789062,290300
2024-10-31,165.2106475830078,329900
2024-11-01,166.68653869628906,316300
2024-11-04,165.5550079345703,191800
2024-11-05,167.57205200195312,206200
2024-11-06,170.37623596191406,264100
2024-11-07,171.9013214111328,412300
2024-11-08,172.93443298339844,309200
2024-11-11,173.31817626953125,189100
2024-11-12,172.8754119873047,179800
2024-11-13,172.6786346435547,168400
2024-11-14,171.30113220214844,198200
2024-11-15,163.8134765625,620500
2024-11-18,164.01025390625,384400
2024-11-19,164.2168731689453,287600
2024-11-20,166.0174560546875,221800
2024-11-21,167.1489715576172,205100
2024-11-22,168.75277709960938,241600
2024-11-25,169.7268524169922,270100
2024-11-26,169.2742462158203,140300
2024-11-27,168.96922302246094,167200
2024-11-29,170.17947387695312,117300
2024-12-02,169.982666015625,170900
2024-12-03,169.62843322753906,160100
2024-12-04,169.81539916992188,173400
2024-12-05,168.349365234375,245000
2024-12-06,168.3985595703125,209200
2024-12-09,168.04434204101562,301700
2024-12-10,168.1623992919922,287000
2024-12-11,169.53990173339844,418600
2024-12-12,168.88067626953125,178300
2024-12-13,167.46380615234375,153200
2024-12-16,164.93515014648438,236100
2024-12-17,160.46812438964844,511900
2024-12-18,155.66659545898438,468600
2024-12-19,156.3159637451172,404700
2024-12-20,155.6370391845703,730200
2024-12-23,155.97161865234375,194900
2024-12-24,156.7882537841797,100500
2024-12-26,156.29629516601562,164500
2024-12-27,155.60752868652344,145000
2024-12-30,154.21035766601562,221700
2024-12-31,154.57444763183594,317100
2025-01-02,151.68170166015625,239400
2025-01-03,153.00015258789062,250700
2025-01-06,150.46163940429688,369000
2025-01-07,150.96340942382812,361200
2025-01-08,151.67185974121094,228600
2025-01-10,150.98309326171875,350800
2025-01-13,151.41603088378906,349300
2025-01-14,152.12445068359375,196900
2025-01-15,153.0592041015625,206100
2025-01-16,153.89552307128906,346300
2025-01-17,153.58065795898438,231900
2025-01-21,157.2605438232422,270900
2025-01-22,156.51275634765625,280000
2025-01-23,157.0539093017578,149800
2025-01-24,155.755126953125,329600
2025-01-27,155.91258239746094,317000
2025-01-28,155.8732147216797,204300
2025-01-29,154.58425903320312,265800
2025-01-30,155.58787536621094,274200
2025-01-31,154.6236114501953,834100
2025-02-03,153.47242736816406,364600
2025-02-04,155.16477966308594,302400
2025-02-05,156.22061157226562,262600
2025-02-06,154.37538146972656,446600
2025-02-07,141.28134155273438,1221500
2025-02-10,141.38002014160156,621900
2025-02-11,140.40313720703125,377300
2025-02-12,139.82098388671875,423500
2025-02-13,140.87680053710938,665900
2025-02-14,142.87001037597656,512800
2025-02-18,144.9520263671875,489600
2025-02-19,145.0901641845703,331000
2025-02-20,144.7349395751953,283100
2025-02-21,144.39944458007812,451900
2025-02-24,143.67913818359375,353300
2025-02-25,145.75128173828125,336700
2025-02-26,144.69546508789062,735600
2025-02-27,143.69886779785156,262800
2025-02-28,144.80401611328125,348700
2025-03-03,144.64613342285156,394100
2025-03-04,144.00474548339844,490100
2025-03-05,146.4716033935547,445100
2025-03-06,149.1456756591797,471700
2025-03-07,150.75404357910156,480200
2025-03-10,148.5733642578125,391100
2025-03-11,145.92889404296875,304000
2025-03-12,144.09356689453125,299700
2025-03-13,142.84039306640625,238400
2025-03-14,144.7152099609375,223600
2025-03-17,145.8795623779297,225200
2025-03-18,144.36000061035156,219900
2025-03-19,145.03097534179688,279600
2025-03-20,143.27456665039062,332800
2025-03-21,142.89962768554688,601900
2025-03-24,146.02757263183594,463800
2025-03-25,145.25790405273438,325200
2025-03-26,146.59002685546875,630400
2025-03-27,147.36953735351562,312700
2025-03-28,144.98162841796875,239800
2025-03-31,146.4123992919922,372500
2025-04-01,147.1228485107422,240000
2025-04-02,148.5338897705078,247600
2025-04-03,146.6985626220703,352900
2025-04-04,138.32113647460938,531600
2025-04-07,132.86444091796875,629900
2025-04-08,131.88758850097656,473800
2025-04-09,141.8437957763672,491800
2025-04-10,138.89344787597656,309000
2025-04-11,142.19903564453125,203000
2025-04-14,143.85675048828125,249300
2025-04-15,142.0312957763672,250700
2025-04-16,143.07720947265625,307700
2025-04-17,141.9227294921875,390600
2025-04-21,140.68931579589844,291600
2025-04-22,144.08370971679688,217800
2025-04-23,146.0867919921875,537000
2025-04-24,149.45156860351562,424500
2025-04-25,147.0833740234375,220500
2025-04-28,147.71490478515625,235200
2025-04-29,148.3069305419922,359900
2025-04-30,147.9615936279297,556200
2025-05-01,146.75413513183594,445300
2025-05-02,150.43585205078125,431600
2025-05-05,149.92120361328125,267600
2025-05-06,149.36697387695312,312000
2025-05-07,149.83212280273438,318400
2025-05-08,151.7818603515625,302500
2025-05-09,151.74227905273438,231600
2025-05-12,153.91964721679688,352500
2025-05-13,152.05897521972656,339400
2025-05-14,150.91090393066406,350100
2025-05-15,153.35549926757812,278100
2025-05-16,155.39430236816406,278600
2025-05-19,156.4532928466797,185400
2025-05-20,156.89865112304688,388100
2025-05-21,154.84005737304688,319800
2025-05-22,155.03799438476562,278900
2025-05-23,154.33531188964844,260500
2025-05-27,156.532470703125,352800
2025-05-28,155.7802734375,364400
2025-05-29,156.7007293701172,232100
2025-05-30,156.76998901367188,335100
2025-06-02,155.2953338623047,349600
2025-06-03,154.65200805664062,397800
2025-06-04,148.8622283935547,831900
2025-06-05,150.9208221435547,482400
2025-06-06,151.7323760986328,264700
2025-06-09,150.0399627685547,388400
2025-06-10,150.96038818359375,323500
2025-06-11,150.35667419433594,380800
2025-06-12,152.76168823242188,337200
2025-06-13,149.6044921875,361200
2025-06-16,150.1290283203125,346200
2025-06-17,147.91209411621094,379700
2025-06-18,148.15951538085938,383200
2025-06-20,148.7533416748047,570500
2025-06-23,152.20742797851562,356500
2025-06-24,152.28659057617188,246600
2025-06-25,152.3459930419922,264700
2025-06-26,152.89031982421875,658200
2025-06-27,154.21653747558594,643100
2025-06-30,154.82025146484375,315500
2025-07-01,157.37371826171875,338300
2025-07-02,158.6702423095703,293500
2025-07-03,159.3828125,235100
2025-07-07,159.3036651611328,313900
2025-07-08,158.40301513671875,342700
2025-07-09,158.08628845214844,252800
2025-07-10,156.7007293701172,361600
2025-07-11,156.27513122558594,292000
2025-07-14,155.93862915039062,276600
2025-07-15,152.57362365722656,254200
2025-07-16,153.3851776123047,261900
2025-07-17,154.42437744140625,397700
2025-07-18,154.77078247070312,243100
2025-07-21,153.850341796875,205900
2025-07-22,157.5320587158203,449900
2025-07-23,159.99644470214844,450500
2025-07-24,160.60186767578125,431900
2025-07-25,159.77810668945312,296300
2025-07-28,157.50534057617188,308500
2025-07-29,157.62445068359375,388200
2025-07-30,155.60971069335938,580700
2025-07-31,155.9570770263672,679700
2025-08-01,140.28594970703125,1012300
2025-08-04,138.08267211914062,839000
2025-08-05,139.16445922851562,540800
2025-08-06,137.49710083007812,515300
2025-08-07,139.4324188232422,564000
2025-08-08,139.69046020507812,428700
2025-08-11,138.81707763671875,349500
2025-08-12,138.4300079345703,286100
2025-08-13,140.36532592773438,729900
2025-08-14,137.29859924316406,875800
2025-08-15,137.6757354736328,770500
2025-08-18,136.85198974609375,529500
2025-08-19,138.53919982910156,333100
2025-08-20,140.11721801757812,519200
2025-08-21,139.581298828125,270400
2025-08-22,140.36532592773438,356500
2025-08-25,138.50941467285156,245800
2025-08-26,138.65829467773438,442900
2025-08-27,138.39031982421875,729100
2025-08-28,137.84445190429688,320800
2025-08-29,138.2216033935547,370700
2025-09-02,135.3831329345703,310600
2025-09-03,134.2021026611328,382300
2025-09-04,137.41770935058594,401800
2025-09-05,137.5764923095703,440800
2025-09-08,137.2589111328125,616100
2025-09-09,136.01832580566406,637100
2025-09-10,135.22434997558594,685100
2025-09-11,136.0679473876953,477500
2025-09-12,134.21200561523438,261300
2025-09-15,133.8348846435547,298000
2025-09-16,134.19216918945312,474800
2025-09-17,133.63636779785156,377400
2025-09-18,133.4875030517578,254800
2025-09-19,133.427978515625,877200
2025-09-22,131.72091674804688,402100
2025-09-23,131.02618408203125,319700
2025-09-24,130.51010131835938,353300
2025-09-25,129.83522033691406,388700
2025-09-26,131.2941436767578,274400
2025-09-29,131.2742919921875,540600
2025-09-30,132.65383911132812,310400
2025-10-01,133.13021850585938,310100
2025-10-02,132.1774444580078,398500
2025-10-03,132.21714782714844,402000
2025-10-06,130.88723754882812,447100
2025-10-07,129.60693359375,438800
2025-10-08,130.6192626953125,361300
2025-10-09,129.6267852783203,554200
2025-10-10,129.94436645507812,426000
2025-10-13,129.23973083496094,311400
2025-10-14,128.82290649414062,337400
2025-10-15,127.13569641113281,438300
2025-10-16,128.18771362304688,352700
2025-10-17,128.36634826660156,339700
2025-10-20,129.02137756347656,240500
2025-10-21,129.58709716796875,311600
2025-10-22,129.0809326171875,357500
2025-10-23,130.266357421875,378600
2025-10-24,128.38363647460938,489300
2025-10-27,128.2840118408203,521700
2025-10-28,127.60664367675781,413500
2025-10-29,123.83123016357422,651100
2025-10-30,123.88104248046875,702600
2025-10-31,115.56320190429688,2758200
2025-11-03,112.68433380126953,1661000
2025-11-04,113.74024963378906,1029100
2025-11-05,115.12489318847656,896900
2025-11-06,115.7026596069336,880300
2025-11-07,115.77239227294922,697200
2025-11-10,115.93177032470703,514000
2025-11-11,117.81449127197266,484800
2025-11-12,117.70491790771484,547500
2025-11-13,119.737060546875,679400
2025-11-14,118.15318298339844,521200
2025-11-17,118.88037109375,820200
2025-11-18,118.8504867553711,817400
2025-11-19,117.5455322265625,598900
2025-11-20,118.12329864501953,507400
2025-11-21,121.05197143554688,509100
2025-11-24,121.00216674804688,740000
2025-11-25,122.96458435058594,543600
2025-11-26,123.3331527709961,538000
2025-11-28,124.26953887939453,315700
2025-12-01,122.8051986694336,536800
2025-12-02,121.13166809082031,325400
2025-12-03,121.58989715576172,543100
2025-12-04,121.550048828125,708000
2025-12-05,121.44047546386719,537000
2025-12-08,119.60755920410156,496600
2025-12-09,115.2743148803711,640300
2025-12-10,116.7187271118164,734700
2025-12-11,117.55549621582031,389700
2025-12-12,121.00216674804688,656400
2025-12-15,121.85885620117188,588600
2025-12-16,122.35693359375,644800
2025-12-17,123.15384674072266,567300
2025-12-18,122.14774322509766,457100
2025-12-19,120.92247772216797,1300400
2025-12-22,122.26727294921875,527800
2025-12-23,121.71939849853516,311700
2025-12-24,122.27723693847656,198000
2025-12-26,122.77531433105469,306000
2025-12-29,122.73546600341797,400200
2025-12-30,122.26727294921875,289800
2025-12-31,121.49028015136719,314300
2026-01-02,122.06804656982422,295100
2026-01-05,122.52627563476562,435700
2026-01-06,120.09567260742188,777200
2026-01-07,119.97613525390625,478500
2026-01-08,121.96843719482422,330000
2026-01-09,123.37300109863281,429100
2026-01-12,124.6480712890625,477300
2026-01-13,123.02435302734375,351900
2026-01-14,126.3614501953125,611700
2026-01-15,124.6281509399414,381000
2026-01-16,124.22969055175781,363400
2026-01-20,123.3431167602539,275100
2026-01-21,124.52853393554688,421000
2026-01-22,123.99061584472656,369700
2026-01-23,125.51472473144531,429500
2026-01-26,125.86337280273438,315400
2026-01-27,124.25957489013672,303100
2026-01-28,123.22357940673828,347800
2026-01-29,123.37300109863281,386000
2026-01-30,124.46876525878906,512700
2026-02-02,124.34922790527344,489100
2026-02-03,124.14999389648438,658700
2026-02-04,129.22999572753906,589400
2026-02-05,123.9800033569336,2144200
2026-02-06,134.30999755859375,1045700
2026-02-09,138.47000122070312,1043400
2026-02-10,140.1699981689453,622100
2026-02-11,140.00999450683594,584300
2026-02-12,140.50999450683594,572700
2026-02-13,142.5800018310547,471900
2026-02-17,141.64999389648438,614700
2026-02-18,141.72000122070312,582000
2026-02-19,143.16000366210938,525500
2026-02-20,145.0500030517578,664500
2026-02-23,145.72000122070312,513500
2026-02-24,144.13999938964844,429800
2026-02-25,142.67999267578125,348900
2026-02-26,141.7899932861328,331300
2026-02-27,143.7100067138672,344600
2026-03-02,142.6699981689453,335000
2026-03-03,139.75999450683594,347300
2026-03-04,137.0399932861328,389000
2026-03-05,134.72999572753906,452300
2026-03-06,132.0800018310547,398500
2026-03-09,133.75,545700
2026-03-10,132.1300048828125,503100
2026-03-11,132.02000427246094,563800
2026-03-12,128.86000061035156,620600
2026-03-13,128.64999389648438,660600
2026-03-16,129.0500030517578,370700
2026-03-17,129.5,276700
2026-03-18,124.22000122070312,910500
2026-03-19,123.97000122070312,518500
2026-03-20,121.05999755859375,1481520
